Elapsed time,ECG
hh:mm:ss.mmm,mV
0:00.000,-17
0:00.002,-16
0:00.004,-14
0:00.006,-15
0:00.008,-19
0:00.010,-18
0:00.012,-20
0:00.014,-20
0:00.016,-20
0:00.018,-17
0:00.020,-12
0:00.022,-9
0:00.024,-11
0:00.026,-12
0:00.028,-14
0:00.030,-16
0:00.032,-17
0:00.034,-16
0:00.036,-14
0:00.038,-8
0:00.040,-10
0:00.042,-9
0:00.044,-8
0:00.046,-8
0:00.048,-11
0:00.050,-12
0:00.052,-11
0:00.054,-11
0:00.056,-11
0:00.058,-9
0:00.060,-8
0:00.062,-9
0:00.064,-8
0:00.066,-6
0:00.068,-7
0:00.070,-9
0:00.072,-11
0:00.074,-11
0:00.076,-10
0:00.078,-4
0:00.080,-3
0:00.082,-2
0:00.084,1
0:00.086,0
0:00.088,-1
0:00.090,-5
0:00.092,-7
0:00.094,-6
0:00.096,-6
0:00.098,-3
0:00.100,-1
0:00.102,0
0:00.104,2
0:00.106,4
0:00.108,0
0:00.110,-1
0:00.112,1
0:00.114,1
0:00.116,2
0:00.118,5
0:00.120,8
0:00.122,11
0:00.124,12
0:00.126,9
0:00.128,8
0:00.130,9
0:00.132,8
0:00.134,8
0:00.136,14
0:00.138,15
0:00.140,18
0:00.142,21
0:00.144,21
0:00.146,23
0:00.148,21
0:00.150,20
0:00.152,20
0:00.154,19
0:00.156,25
0:00.158,31
0:00.160,32
0:00.162,32
0:00.164,35
0:00.166,35
0:00.168,31
0:00.170,32
0:00.172,30
0:00.174,30
0:00.176,32
0:00.178,36
0:00.180,38
0:00.182,38
0:00.184,40
0:00.186,38
0:00.188,36
0:00.190,35
0:00.192,33
0:00.194,32
0:00.196,33
0:00.198,31
0:00.200,33
0:00.202,33
0:00.204,34
0:00.206,29
0:00.208,27
0:00.210,22
0:00.212,18
0:00.214,14
0:00.216,15
0:00.218,17
0:00.220,17
0:00.222,14
0:00.224,14
0:00.226,10
0:00.228,8
0:00.230,5
0:00.232,1
0:00.234,-1
0:00.236,0
0:00.238,0
0:00.240,1
0:00.242,2
0:00.244,0
0:00.246,2
0:00.248,3
0:00.250,6
0:00.252,7
0:00.254,9
0:00.256,13
0:00.258,17
0:00.260,18
0:00.262,24
0:00.264,23
0:00.266,18
0:00.268,17
0:00.270,14
0:00.272,16
0:00.274,16
0:00.276,18
0:00.278,19
0:00.280,22
0:00.282,23
0:00.284,26
0:00.286,23
0:00.288,20
0:00.290,19
0:00.292,19
0:00.294,19
0:00.296,20
0:00.298,22
0:00.300,24
0:00.302,25
0:00.304,28
0:00.306,27
0:00.308,23
0:00.310,23
0:00.312,23
0:00.314,23
0:00.316,25
0:00.318,26
0:00.320,25
0:00.322,28
0:00.324,28
0:00.326,28
0:00.328,26
0:00.330,21
0:00.332,20
0:00.334,20
0:00.336,26
0:00.338,28
0:00.340,27
0:00.342,30
0:00.344,29
0:00.346,26
0:00.348,25
0:00.350,25
0:00.352,23
0:00.354,24
0:00.356,25
0:00.358,28
0:00.360,28
0:00.362,30
0:00.364,29
0:00.366,28
0:00.368,27
0:00.370,28
0:00.372,25
0:00.374,25
0:00.376,27
0:00.378,29
0:00.380,29
0:00.382,28
0:00.384,27
0:00.386,24
0:00.388,24
0:00.390,22
0:00.392,23
0:00.394,24
0:00.396,27
0:00.398,27
0:00.400,26
0:00.402,27
0:00.404,26
0:00.406,22
0:00.408,22
0:00.410,22
0:00.412,21
0:00.414,23
0:00.416,25
0:00.418,26
0:00.420,23
0:00.422,24
0:00.424,23
0:00.426,21
0:00.428,20
0:00.430,21
0:00.432,18
0:00.434,20
0:00.436,21
0:00.438,22
0:00.440,24
0:00.442,27
0:00.444,24
0:00.446,22
0:00.448,19
0:00.450,20
0:00.452,19
0:00.454,20
0:00.456,22
0:00.458,22
0:00.460,23
0:00.462,23
0:00.464,19
0:00.466,16
0:00.468,15
0:00.470,14
0:00.472,14
0:00.474,15
0:00.476,18
0:00.478,17
0:00.480,20
0:00.482,25
0:00.484,22
0:00.486,21
0:00.488,15
0:00.490,16
0:00.492,13
0:00.494,15
0:00.496,16
0:00.498,18
0:00.500,20
0:00.502,23
0:00.504,21
0:00.506,18
0:00.508,17
0:00.510,18
0:00.512,17
0:00.514,19
0:00.516,22
0:00.518,27
0:00.520,26
0:00.522,27
0:00.524,25
0:00.526,24
0:00.528,22
0:00.530,21
0:00.532,19
0:00.534,22
0:00.536,28
0:00.538,27
0:00.540,28
0:00.542,28
0:00.544,26
0:00.546,25
0:00.548,24
0:00.550,21
0:00.552,20
0:00.554,24
0:00.556,30
0:00.558,32
0:00.560,32
0:00.562,34
0:00.564,32
0:00.566,24
0:00.568,23
0:00.570,23
0:00.572,19
0:00.574,19
0:00.576,20
0:00.578,19
0:00.580,18
0:00.582,18
0:00.584,17
0:00.586,11
0:00.588,13
0:00.590,12
0:00.592,13
0:00.594,15
0:00.596,16
0:00.598,16
0:00.600,19
0:00.602,15
0:00.604,11
0:00.606,10
0:00.608,9
0:00.610,7
0:00.612,9
0:00.614,9
0:00.616,11
0:00.618,12
0:00.620,12
0:00.622,12
0:00.624,12
0:00.626,10
0:00.628,7
0:00.630,4
0:00.632,5
0:00.634,7
0:00.636,9
0:00.638,11
0:00.640,12
0:00.642,11
0:00.644,7
0:00.646,5
0:00.648,6
0:00.650,4
0:00.652,6
0:00.654,10
0:00.656,6
0:00.658,8
0:00.660,10
0:00.662,8
0:00.664,5
0:00.666,0
0:00.668,-2
0:00.670,-5
0:00.672,-6
0:00.674,-5
0:00.676,-3
0:00.678,-1
0:00.680,6
0:00.682,13
0:00.684,22
0:00.686,32
0:00.688,40
0:00.690,51
0:00.692,67
0:00.694,85
0:00.696,106
0:00.698,129
0:00.700,144
0:00.702,147
0:00.704,137
0:00.706,126
0:00.708,114
0:00.710,97
0:00.712,82
0:00.714,67
0:00.716,46
0:00.718,20
0:00.720,2
0:00.722,-12
0:00.724,-20
0:00.726,-20
0:00.728,-18
0:00.730,-17
0:00.732,-12
0:00.734,-4
0:00.736,2
0:00.738,7
0:00.740,8
0:00.742,7
0:00.744,3
0:00.746,-1
0:00.748,-4
0:00.750,-5
0:00.752,-2
0:00.754,0
0:00.756,1
0:00.758,5
0:00.760,5
0:00.762,4
0:00.764,0
0:00.766,1
0:00.768,-3
0:00.770,-4
0:00.772,-2
0:00.774,-2
0:00.776,0
0:00.778,2
0:00.780,0
0:00.782,1
0:00.784,1
0:00.786,-1
0:00.788,0
0:00.790,-2
0:00.792,0
0:00.794,3
0:00.796,4
0:00.798,5
0:00.800,8
0:00.802,5
0:00.804,2
0:00.806,0
0:00.808,-1
0:00.810,-1
0:00.812,1
0:00.814,5
0:00.816,5
0:00.818,6
0:00.820,5
0:00.822,2
0:00.824,4
0:00.826,1
0:00.828,2
0:00.830,1
0:00.832,3
0:00.834,4
0:00.836,7
0:00.838,8
0:00.840,10
0:00.842,10
0:00.844,9
0:00.846,8
0:00.848,5
0:00.850,6
0:00.852,6
0:00.854,8
0:00.856,9
0:00.858,11
0:00.860,12
0:00.862,13
0:00.864,13
0:00.866,14
0:00.868,14
0:00.870,13
0:00.872,16
0:00.874,19
0:00.876,21
0:00.878,21
0:00.880,24
0:00.882,23
0:00.884,23
0:00.886,22
0:00.888,20
0:00.890,20
0:00.892,23
0:00.894,26
0:00.896,30
0:00.898,31
0:00.900,32
0:00.902,30
0:00.904,32
0:00.906,33
0:00.908,31
0:00.910,32
0:00.912,35
0:00.914,40
0:00.916,41
0:00.918,42
0:00.920,41
0:00.922,39
0:00.924,37
0:00.926,36
0:00.928,36
0:00.930,36
0:00.932,36
0:00.934,40
0:00.936,41
0:00.938,41
0:00.940,39
0:00.942,34
0:00.944,30
0:00.946,27
0:00.948,26
0:00.950,25
0:00.952,26
0:00.954,23
0:00.956,26
0:00.958,26
0:00.960,23
0:00.962,19
0:00.964,16
0:00.966,14
0:00.968,11
0:00.970,6
0:00.972,3
0:00.974,5
0:00.976,5
0:00.978,4
0:00.980,2
0:00.982,-1
0:00.984,-4
0:00.986,-5
0:00.988,-7
0:00.990,-6
0:00.992,-2
0:00.994,0
0:00.996,-2
0:00.998,-1
0:01.000,-2
0:01.002,-6
0:01.004,-8
0:01.006,-11
0:01.008,-13
0:01.010,-11
0:01.012,-8
0:01.014,-9
0:01.016,-5
0:01.018,-7
0:01.020,-6
0:01.022,-10
0:01.024,-11
0:01.026,-12
0:01.028,-12
0:01.030,-9
0:01.032,-9
0:01.034,-7
0:01.036,-4
0:01.038,-6
0:01.040,-6
0:01.042,-10
0:01.044,-11
0:01.046,-11
0:01.048,-12
0:01.050,-11
0:01.052,-10
0:01.054,-8
0:01.056,-11
0:01.058,-6
0:01.060,-11
0:01.062,-10
0:01.064,-10
0:01.066,-12
0:01.068,-12
0:01.070,-9
0:01.072,-8
0:01.074,-8
0:01.076,-8
0:01.078,-8
0:01.080,-10
0:01.082,-11
0:01.084,-11
0:01.086,-12
0:01.088,-11
0:01.090,-6
0:01.092,-6
0:01.094,-5
0:01.096,-4
0:01.098,-3
0:01.100,-5
0:01.102,-7
0:01.104,-9
0:01.106,-10
0:01.108,-11
0:01.110,-9
0:01.112,-8
0:01.114,-4
0:01.116,-3
0:01.118,-2
0:01.120,-3
0:01.122,-4
0:01.124,-6
0:01.126,-7
0:01.128,-8
0:01.130,-6
0:01.132,-6
0:01.134,-5
0:01.136,-3
0:01.138,-3
0:01.140,-5
0:01.142,-4
0:01.144,-7
0:01.146,-8
0:01.148,-9
0:01.150,-9
0:01.152,-6
0:01.154,-5
0:01.156,-1
0:01.158,-2
0:01.160,-6
0:01.162,-6
0:01.164,-7
0:01.166,-10
0:01.168,-12
0:01.170,-8
0:01.172,-8
0:01.174,-6
0:01.176,-4
0:01.178,-5
0:01.180,-8
0:01.182,-9
0:01.184,-4
0:01.186,-10
0:01.188,-11
0:01.190,-8
0:01.192,-6
0:01.194,-7
0:01.196,-3
0:01.198,-4
0:01.200,-8
0:01.202,-10
0:01.204,-11
0:01.206,-12
0:01.208,-12
0:01.210,-11
0:01.212,-8
0:01.214,-8
0:01.216,-7
0:01.218,-4
0:01.220,-7
0:01.222,-9
0:01.224,-10
0:01.226,-14
0:01.228,-14
0:01.230,-10
0:01.232,-9
0:01.234,-7
0:01.236,-7
0:01.238,-7
0:01.240,-9
0:01.242,-11
0:01.244,-10
0:01.246,-10
0:01.248,-8
0:01.250,-7
0:01.252,-5
0:01.254,-1
0:01.256,-2
0:01.258,-5
0:01.260,-8
0:01.262,-6
0:01.264,-7
0:01.266,-8
0:01.268,-8
0:01.270,-5
0:01.272,-3
0:01.274,-2
0:01.276,3
0:01.278,-1
0:01.280,-1
0:01.282,-3
0:01.284,-4
0:01.286,-5
0:01.288,-5
0:01.290,-2
0:01.292,1
0:01.294,3
0:01.296,4
0:01.298,3
0:01.300,1
0:01.302,1
0:01.304,0
0:01.306,0
0:01.308,0
0:01.310,0
0:01.312,1
0:01.314,4
0:01.316,6
0:01.318,4
0:01.320,-2
0:01.322,-5
0:01.324,-7
0:01.326,-11
0:01.328,-10
0:01.330,-9
0:01.332,-8
0:01.334,-9
0:01.336,-5
0:01.338,-7
0:01.340,-12
0:01.342,-12
0:01.344,-14
0:01.346,-16
0:01.348,-13
0:01.350,-11
0:01.352,-10
0:01.354,-10
0:01.356,-7
0:01.358,-11
0:01.360,-11
0:01.362,-12
0:01.364,-13
0:01.366,-13
0:01.368,-12
0:01.370,-13
0:01.372,-13
0:01.374,-13
0:01.376,-13
0:01.378,-13
0:01.380,-16
0:01.382,-17
0:01.384,-16
0:01.386,-20
0:01.388,-18
0:01.390,-16
0:01.392,-12
0:01.394,-9
0:01.396,-9
0:01.398,-11
0:01.400,-12
0:01.402,-17
0:01.404,-17
0:01.406,-20
0:01.408,-20
0:01.410,-16
0:01.412,-15
0:01.414,-14
0:01.416,-15
0:01.418,-19
0:01.420,-21
0:01.422,-23
0:01.424,-28
0:01.426,-31
0:01.428,-27
0:01.430,-21
0:01.432,-9
0:01.434,4
0:01.436,15
0:01.438,25
0:01.440,34
0:01.442,45
0:01.444,55
0:01.446,78
0:01.448,103
0:01.450,128
0:01.452,138
0:01.454,132
0:01.456,123
0:01.458,111
0:01.460,97
0:01.462,78
0:01.464,61
0:01.466,39
0:01.468,17
0:01.470,-6
0:01.472,-23
0:01.474,-31
0:01.476,-29
0:01.478,-25
0:01.480,-23
0:01.482,-22
0:01.484,-17
0:01.486,-10
0:01.488,-11
0:01.490,-6
0:01.492,-7
0:01.494,-9
0:01.496,-8
0:01.498,-8
0:01.500,-13
0:01.502,-14
0:01.504,-16
0:01.506,-15
0:01.508,-14
0:01.510,-12
0:01.512,-10
0:01.514,-6
0:01.516,-9
0:01.518,-9
0:01.520,-11
0:01.522,-12
0:01.524,-11
0:01.526,-12
0:01.528,-8
0:01.530,-7
0:01.532,-5
0:01.534,-2
0:01.536,-5
0:01.538,-9
0:01.540,-10
0:01.542,-11
0:01.544,-10
0:01.546,-11
0:01.548,-6
0:01.550,-5
0:01.552,-4
0:01.554,-2
0:01.556,-2
0:01.558,-4
0:01.560,-6
0:01.562,-5
0:01.564,-4
0:01.566,-3
0:01.568,1
0:01.570,4
0:01.572,5
0:01.574,5
0:01.576,3
0:01.578,1
0:01.580,-2
0:01.582,-2
0:01.584,-2
0:01.586,2
0:01.588,3
0:01.590,5
0:01.592,9
0:01.594,12
0:01.596,13
0:01.598,10
0:01.600,8
0:01.602,9
0:01.604,8
0:01.606,9
0:01.608,9
0:01.610,12
0:01.612,13
0:01.614,14
0:01.616,13
0:01.618,13
0:01.620,13
0:01.622,13
0:01.624,15
0:01.626,16
0:01.628,20
0:01.630,23
0:01.632,25
0:01.634,26
0:01.636,28
0:01.638,28
0:01.640,30
0:01.642,27
0:01.644,26
0:01.646,28
0:01.648,34
0:01.650,35
0:01.652,38
0:01.654,40
0:01.656,41
0:01.658,38
0:01.660,40
0:01.662,40
0:01.664,39
0:01.666,42
0:01.668,45
0:01.670,47
0:01.672,46
0:01.674,48
0:01.676,45
0:01.678,45
0:01.680,41
0:01.682,40
0:01.684,38
0:01.686,38
0:01.688,41
0:01.690,41
0:01.692,44
0:01.694,46
0:01.696,41
0:01.698,39
0:01.700,35
0:01.702,33
0:01.704,31
0:01.706,30
0:01.708,28
0:01.710,27
0:01.712,26
0:01.714,22
0:01.716,21
0:01.718,17
0:01.720,15
0:01.722,13
0:01.724,12
0:01.726,13
0:01.728,12
0:01.730,12
0:01.732,10
0:01.734,9
0:01.736,8
0:01.738,4
0:01.740,2
0:01.742,0
0:01.744,0
0:01.746,2
0:01.748,3
0:01.750,2
0:01.752,4
0:01.754,2
0:01.756,0
0:01.758,-4
0:01.760,-4
0:01.762,-8
0:01.764,-7
0:01.766,-5
0:01.768,-3
0:01.770,-1
0:01.772,1
0:01.774,-1
0:01.776,-4
0:01.778,-5
0:01.780,-5
0:01.782,-5
0:01.784,-5
0:01.786,-5
0:01.788,-2
0:01.790,1
0:01.792,3
0:01.794,2
0:01.796,1
0:01.798,-4
0:01.800,-3
0:01.802,-3
0:01.804,-4
0:01.806,-5
0:01.808,-4
0:01.810,-4
0:01.812,0
0:01.814,3
0:01.816,-1
0:01.818,-2
0:01.820,-4
0:01.822,-6
0:01.824,-6
0:01.826,-3
0:01.828,0
0:01.830,2
0:01.832,3
0:01.834,3
0:01.836,-1
0:01.838,-2
0:01.840,-7
0:01.842,-5
0:01.844,-5
0:01.846,-4
0:01.848,1
0:01.850,3
0:01.852,4
0:01.854,5
0:01.856,0
0:01.858,-2
0:01.860,-5
0:01.862,-7
0:01.864,-4
0:01.866,-2
0:01.868,1
0:01.870,1
0:01.872,2
0:01.874,3
0:01.876,0
0:01.878,-1
0:01.880,-4
0:01.882,-5
0:01.884,-5
0:01.886,-3
0:01.888,0
0:01.890,1
0:01.892,3
0:01.894,4
0:01.896,0
0:01.898,-3
0:01.900,-4
0:01.902,-6
0:01.904,-5
0:01.906,-1
0:01.908,-1
0:01.910,0
0:01.912,2
0:01.914,3
0:01.916,1
0:01.918,-2
0:01.920,-3
0:01.922,-4
0:01.924,-3
0:01.926,-1
0:01.928,-1
0:01.930,-1
0:01.932,-2
0:01.934,-2
0:01.936,-2
0:01.938,-3
0:01.940,-5
0:01.942,-5
0:01.944,-4
0:01.946,-2
0:01.948,-2
0:01.950,-1
0:01.952,-1
0:01.954,-2
0:01.956,-5
0:01.958,-5
0:01.960,-5
0:01.962,-7
0:01.964,-6
0:01.966,-4
0:01.968,-2
0:01.970,-1
0:01.972,-2
0:01.974,-3
0:01.976,-5
0:01.978,-6
0:01.980,-7
0:01.982,-8
0:01.984,-5
0:01.986,-4
0:01.988,-3
0:01.990,-1
0:01.992,0
0:01.994,-2
0:01.996,-5
0:01.998,-6
0:02.000,-9
0:02.002,-9
0:02.004,-9
0:02.006,-7
0:02.008,-8
0:02.010,-5
0:02.012,-2
0:02.014,-5
0:02.016,-8
0:02.018,-8
0:02.020,-6
0:02.022,-7
0:02.024,-8
0:02.026,-5
0:02.028,-4
0:02.030,-3
0:02.032,-1
0:02.034,-2
0:02.036,-5
0:02.038,-8
0:02.040,-9
0:02.042,-8
0:02.044,-4
0:02.046,-3
0:02.048,-2
0:02.050,0
0:02.052,-1
0:02.054,-2
0:02.056,-2
0:02.058,-3
0:02.060,0
0:02.062,2
0:02.064,5
0:02.066,13
0:02.068,14
0:02.070,17
0:02.072,20
0:02.074,20
0:02.076,18
0:02.078,18
0:02.080,19
0:02.082,17
0:02.084,20
0:02.086,21
0:02.088,22
0:02.090,24
0:02.092,25
0:02.094,26
0:02.096,29
0:02.098,31
0:02.100,29
0:02.102,27
0:02.104,30
0:02.106,33
0:02.108,36
0:02.110,37
0:02.112,35
0:02.114,34
0:02.116,33
0:02.118,35
0:02.120,34
0:02.122,32
0:02.124,34
0:02.126,34
0:02.128,34
0:02.130,33
0:02.132,32
0:02.134,30
0:02.136,27
0:02.138,23
0:02.140,23
0:02.142,21
0:02.144,22
0:02.146,24
0:02.148,25
0:02.150,26
0:02.152,28
0:02.154,25
0:02.156,25
0:02.158,24
0:02.160,22
0:02.162,19
0:02.164,19
0:02.166,19
0:02.168,21
0:02.170,23
0:02.172,24
0:02.174,21
0:02.176,19
0:02.178,16
0:02.180,15
0:02.182,15
0:02.184,18
0:02.186,22
0:02.188,23
0:02.190,24
0:02.192,25
0:02.194,19
0:02.196,16
0:02.198,14
0:02.200,12
0:02.202,17
0:02.204,20
0:02.206,20
0:02.208,21
0:02.210,23
0:02.212,21
0:02.214,19
0:02.216,17
0:02.218,15
0:02.220,14
0:02.222,16
0:02.224,15
0:02.226,16
0:02.228,18
0:02.230,16
0:02.232,18
0:02.234,11
0:02.236,9
0:02.238,4
0:02.240,4
0:02.242,8
0:02.244,14
0:02.246,23
0:02.248,35
0:02.250,47
0:02.252,56
0:02.254,65
0:02.256,77
0:02.258,89
0:02.260,111
0:02.262,136
0:02.264,164
0:02.266,178
0:02.268,172
0:02.270,168
0:02.272,155
0:02.274,139
0:02.276,119
0:02.278,101
0:02.280,79
0:02.282,53
0:02.284,31
0:02.286,10
0:02.288,2
0:02.290,7
0:02.292,8
0:02.294,8
0:02.296,11
0:02.298,12
0:02.300,15
0:02.302,19
0:02.304,24
0:02.306,26
0:02.308,25
0:02.310,26
0:02.312,24
0:02.314,21
0:02.316,18
0:02.318,17
0:02.320,18
0:02.322,21
0:02.324,22
0:02.326,22
0:02.328,24
0:02.330,26
0:02.332,25
0:02.334,22
0:02.336,18
0:02.338,15
0:02.340,16
0:02.342,19
0:02.344,23
0:02.346,23
0:02.348,23
0:02.350,28
0:02.352,22
0:02.354,20
0:02.356,19
0:02.358,17
0:02.360,20
0:02.362,24
0:02.364,26
0:02.366,27
0:02.368,28
0:02.370,29
0:02.372,26
0:02.374,23
0:02.376,22
0:02.378,21
0:02.380,22
0:02.382,26
0:02.384,28
0:02.386,30
0:02.388,31
0:02.390,33
0:02.392,27
0:02.394,23
0:02.396,22
0:02.398,23
0:02.400,22
0:02.402,26
0:02.404,27
0:02.406,28
0:02.408,31
0:02.410,33
0:02.412,32
0:02.414,30
0:02.416,29
0:02.418,29
0:02.420,27
0:02.422,28
0:02.424,33
0:02.426,34
0:02.428,35
0:02.430,34
0:02.432,34
0:02.434,33
0:02.436,35
0:02.438,32
0:02.440,33
0:02.442,36
0:02.444,42
0:02.446,43
0:02.448,45
0:02.450,45
0:02.452,43
0:02.454,42
0:02.456,44
0:02.458,40
0:02.460,45
0:02.462,50
0:02.464,51
0:02.466,52
0:02.468,54
0:02.470,54
0:02.472,54
0:02.474,53
0:02.476,53
0:02.478,50
0:02.480,53
0:02.482,53
0:02.484,56
0:02.486,59
0:02.488,59
0:02.490,58
0:02.492,58
0:02.494,57
0:02.496,56
0:02.498,52
0:02.500,52
0:02.502,51
0:02.504,52
0:02.506,52
0:02.508,54
0:02.510,52
0:02.512,47
0:02.514,44
0:02.516,38
0:02.518,34
0:02.520,34
0:02.522,30
0:02.524,31
0:02.526,32
0:02.528,30
0:02.530,26
0:02.532,24
0:02.534,19
0:02.536,19
0:02.538,15
0:02.540,16
0:02.542,15
0:02.544,15
0:02.546,13
0:02.548,13
0:02.550,7
0:02.552,6
0:02.554,4
0:02.556,3
0:02.558,-1
0:02.560,0
0:02.562,2
0:02.564,2
0:02.566,2
0:02.568,6
0:02.570,3
0:02.572,1
0:02.574,-2
0:02.576,-4
0:02.578,-6
0:02.580,-4
0:02.582,-3
0:02.584,-2
0:02.586,-1
0:02.588,2
0:02.590,-2
0:02.592,-1
0:02.594,-5
0:02.596,-11
0:02.598,-8
0:02.600,-7
0:02.602,-2
0:02.604,0
0:02.606,1
0:02.608,1
0:02.610,-1
0:02.612,-6
0:02.614,-7
0:02.616,-8
0:02.618,-6
0:02.620,-7
0:02.622,-6
0:02.624,-4
0:02.626,-3
0:02.628,-2
0:02.630,-5
0:02.632,-7
0:02.634,-11
0:02.636,-11
0:02.638,-10
0:02.640,-8
0:02.642,-5
0:02.644,-3
0:02.646,-4
0:02.648,-2
0:02.650,-5
0:02.652,-6
0:02.654,-7
0:02.656,-10
0:02.658,-11
0:02.660,-8
0:02.662,-8
0:02.664,-4
0:02.666,-3
0:02.668,-4
0:02.670,-6
0:02.672,-9
0:02.674,-10
0:02.676,-11
0:02.678,-11
0:02.680,-10
0:02.682,-4
0:02.684,-5
0:02.686,-5
0:02.688,-3
0:02.690,-7
0:02.692,-8
0:02.694,-8
0:02.696,-8
0:02.698,-8
0:02.700,-5
0:02.702,-7
0:02.704,-6
0:02.706,-5
0:02.708,-6
0:02.710,-9
0:02.712,-12
0:02.714,-12
0:02.716,-13
0:02.718,-12
0:02.720,-8
0:02.722,-6
0:02.724,-7
0:02.726,-6
0:02.728,-5
0:02.730,-9
0:02.732,-9
0:02.734,-13
0:02.736,-14
0:02.738,-13
0:02.740,-11
0:02.742,-10
0:02.744,-7
0:02.746,-6
0:02.748,-6
0:02.750,-9
0:02.752,-12
0:02.754,-13
0:02.756,-15
0:02.758,-14
0:02.760,-10
0:02.762,-10
0:02.764,-8
0:02.766,-6
0:02.768,-8
0:02.770,-9
0:02.772,-12
0:02.774,-12
0:02.776,-13
0:02.778,-15
0:02.780,-14
0:02.782,-12
0:02.784,-11
0:02.786,-9
0:02.788,-10
0:02.790,-11
0:02.792,-13
0:02.794,-13
0:02.796,-16
0:02.798,-13
0:02.800,-11
0:02.802,-8
0:02.804,-8
0:02.806,-6
0:02.808,-7
0:02.810,-10
0:02.812,-15
0:02.814,-15
0:02.816,-19
0:02.818,-18
0:02.820,-13
0:02.822,-11
0:02.824,-9
0:02.826,-9
0:02.828,-11
0:02.830,-14
0:02.832,-16
0:02.834,-15
0:02.836,-15
0:02.838,-13
0:02.840,-12
0:02.842,-11
0:02.844,-9
0:02.846,-8
0:02.848,-8
0:02.850,-11
0:02.852,-15
0:02.854,-15
0:02.856,-16
0:02.858,-13
0:02.860,-12
0:02.862,-11
0:02.864,-12
0:02.866,-9
0:02.868,-13
0:02.870,-15
0:02.872,-17
0:02.874,-18
0:02.876,-18
0:02.878,-15
0:02.880,-11
0:02.882,-6
0:02.884,-5
0:02.886,-9
0:02.888,-13
0:02.890,-15
0:02.892,-17
0:02.894,-18
0:02.896,-20
0:02.898,-17
0:02.900,-14
0:02.902,-12
0:02.904,-9
0:02.906,-8
0:02.908,-12
0:02.910,-14
0:02.912,-15
0:02.914,-17
0:02.916,-17
0:02.918,-14
0:02.920,-12
0:02.922,-12
0:02.924,-11
0:02.926,-10
0:02.928,-13
0:02.930,-15
0:02.932,-15
0:02.934,-16
0:02.936,-14
0:02.938,-12
0:02.940,-11
0:02.942,-11
0:02.944,-9
0:02.946,-8
0:02.948,-13
0:02.950,-16
0:02.952,-18
0:02.954,-14
0:02.956,-16
0:02.958,-14
0:02.960,-10
0:02.962,-9
0:02.964,-10
0:02.966,-9
0:02.968,-11
0:02.970,-14
0:02.972,-15
0:02.974,-14
0:02.976,-13
0:02.978,-12
0:02.980,-11
0:02.982,-11
0:02.984,-8
0:02.986,-9
0:02.988,-12
0:02.990,-11
0:02.992,-10
0:02.994,-13
0:02.996,-11
0:02.998,-8
0:03.000,-7
0:03.002,-3
0:03.004,-4
0:03.006,-6
0:03.008,-7
0:03.010,-10
0:03.012,-10
0:03.014,-10
0:03.016,-10
0:03.018,-8
0:03.020,-4
0:03.022,1
0:03.024,2
0:03.026,3
0:03.028,0
0:03.030,0
0:03.032,-3
0:03.034,-4
0:03.036,-4
0:03.038,-4
0:03.040,-1
0:03.042,2
0:03.044,9
0:03.046,5
0:03.048,1
0:03.050,0
0:03.052,-5
0:03.054,-9
0:03.056,-8
0:03.058,-5
0:03.060,-5
0:03.062,-6
0:03.064,-6
0:03.066,-10
0:03.068,-12
0:03.070,-15
0:03.072,-17
0:03.074,-18
0:03.076,-18
0:03.078,-14
0:03.080,-14
0:03.082,-11
0:03.084,-9
0:03.086,-11
0:03.088,-14
0:03.090,-16
0:03.092,-16
0:03.094,-18
0:03.096,-18
0:03.098,-16
0:03.100,-12
0:03.102,-12
0:03.104,-12
0:03.106,-16
0:03.108,-16
0:03.110,-17
0:03.112,-21
0:03.114,-22
0:03.116,-20
0:03.118,-16
0:03.120,-15
0:03.122,-13
0:03.124,-11
0:03.126,-14
0:03.128,-17
0:03.130,-20
0:03.132,-22
0:03.134,-21
0:03.136,-18
0:03.138,-17
0:03.140,-16
0:03.142,-15
0:03.144,-10
0:03.146,-16
0:03.148,-17
0:03.150,-18
0:03.152,-22
0:03.154,-24
0:03.156,-21
0:03.158,-19
0:03.160,-20
0:03.162,-20
0:03.164,-21
0:03.166,-25
0:03.168,-26
0:03.170,-25
0:03.172,-25
0:03.174,-18
0:03.176,-4
0:03.178,9
0:03.180,19
0:03.182,31
0:03.184,47
0:03.186,55
0:03.188,72
0:03.190,92
0:03.192,118
0:03.194,134
0:03.196,135
0:03.198,135
0:03.200,124
0:03.202,115
0:03.204,93
0:03.206,76
0:03.208,54
0:03.210,27
0:03.212,-2
0:03.214,-26
0:03.216,-36
0:03.218,-37
0:03.220,-30
0:03.222,-27
0:03.224,-22
0:03.226,-17
0:03.228,-14
0:03.230,-14
0:03.232,-15
0:03.234,-12
0:03.236,-10
0:03.238,-10
0:03.240,-7
0:03.242,-6
0:03.244,-7
0:03.246,-10
0:03.248,-12
0:03.250,-12
0:03.252,-12
0:03.254,-13
0:03.256,-10
0:03.258,-8
0:03.260,-6
0:03.262,-8
0:03.264,-6
0:03.266,-9
0:03.268,-13
0:03.270,-12
0:03.272,-13
0:03.274,-8
0:03.276,-8
0:03.278,-4
0:03.280,-2
0:03.282,-3
0:03.284,-3
0:03.286,-6
0:03.288,-9
0:03.290,-8
0:03.292,-11
0:03.294,-9
0:03.296,-6
0:03.298,-2
0:03.300,1
0:03.302,2
0:03.304,0
0:03.306,-5
0:03.308,-6
0:03.310,-7
0:03.312,-13
0:03.314,-8
0:03.316,-3
0:03.318,-3
0:03.320,-1
0:03.322,3
0:03.324,2
0:03.326,1
0:03.328,-1
0:03.330,-2
0:03.332,-3
0:03.334,0
0:03.336,-1
0:03.338,0
0:03.340,2
0:03.342,5
0:03.344,6
0:03.346,3
0:03.348,3
0:03.350,0
0:03.352,2
0:03.354,2
0:03.356,6
0:03.358,9
0:03.360,11
0:03.362,13
0:03.364,14
0:03.366,13
0:03.368,12
0:03.370,10
0:03.372,13
0:03.374,14
0:03.376,20
0:03.378,22
0:03.380,23
0:03.382,26
0:03.384,26
0:03.386,24
0:03.388,23
0:03.390,23
0:03.392,25
0:03.394,28
0:03.396,31
0:03.398,34
0:03.400,33
0:03.402,35
0:03.404,33
0:03.406,34
0:03.408,37
0:03.410,36
0:03.412,35
0:03.414,39
0:03.416,40
0:03.418,42
0:03.420,39
0:03.422,43
0:03.424,39
0:03.426,39
0:03.428,38
0:03.430,34
0:03.432,33
0:03.434,34
0:03.436,37
0:03.438,34
0:03.440,35
0:03.442,34
0:03.444,35
0:03.446,26
0:03.448,25
0:03.450,24
0:03.452,21
0:03.454,21
0:03.456,22
0:03.458,21
0:03.460,20
0:03.462,18
0:03.464,15
0:03.466,13
0:03.468,9
0:03.470,5
0:03.472,1
0:03.474,1
0:03.476,-1
0:03.478,1
0:03.480,1
0:03.482,0
0:03.484,-3
0:03.486,-5
0:03.488,-6
0:03.490,-9
0:03.492,-10
0:03.494,-10
0:03.496,-7
0:03.498,-7
0:03.500,-4
0:03.502,-4
0:03.504,-7
0:03.506,-8
0:03.508,-11
0:03.510,-11
0:03.512,-9
0:03.514,-8
0:03.516,-9
0:03.518,-10
0:03.520,-11
0:03.522,-11
0:03.524,-15
0:03.526,-15
0:03.528,-14
0:03.530,-15
0:03.532,-15
0:03.534,-12
0:03.536,-11
0:03.538,-11
0:03.540,-10
0:03.542,-9
0:03.544,-10
0:03.546,-12
0:03.548,-13
0:03.550,-16
0:03.552,-14
0:03.554,-12
0:03.556,-11
0:03.558,-7
0:03.560,-4
0:03.562,-5
0:03.564,-9
0:03.566,-14
0:03.568,-14
0:03.570,-15
0:03.572,-11
0:03.574,-9
0:03.576,-4
0:03.578,-7
0:03.580,-5
0:03.582,-5
0:03.584,-8
0:03.586,-11
0:03.588,-13
0:03.590,-14
0:03.592,-13
0:03.594,-9
0:03.596,-8
0:03.598,-8
0:03.600,-5
0:03.602,-2
0:03.604,-7
0:03.606,-9
0:03.608,-10
0:03.610,-13
0:03.612,-13
0:03.614,-10
0:03.616,-7
0:03.618,-7
0:03.620,-4
0:03.622,-3
0:03.624,-6
0:03.626,-7
0:03.628,-9
0:03.630,-10
0:03.632,-10
0:03.634,-6
0:03.636,-6
0:03.638,-6
0:03.640,-5
0:03.642,-2
0:03.644,-8
0:03.646,-7
0:03.648,-8
0:03.650,-10
0:03.652,-7
0:03.654,-7
0:03.656,-3
0:03.658,-5
0:03.660,-3
0:03.662,-3
0:03.664,-5
0:03.666,-8
0:03.668,-8
0:03.670,-10
0:03.672,-11
0:03.674,-8
0:03.676,-6
0:03.678,-5
0:03.680,-5
0:03.682,-6
0:03.684,-7
0:03.686,-12
0:03.688,-12
0:03.690,-14
0:03.692,-12
0:03.694,-7
0:03.696,-6
0:03.698,-2
0:03.700,-5
0:03.702,-5
0:03.704,-8
0:03.706,-11
0:03.708,-14
0:03.710,-15
0:03.712,-8
0:03.714,-9
0:03.716,-8
0:03.718,-9
0:03.720,-6
0:03.722,-7
0:03.724,-10
0:03.726,-11
0:03.728,-13
0:03.730,-14
0:03.732,-13
0:03.734,-12
0:03.736,-10
0:03.738,-8
0:03.740,-6
0:03.742,-9
0:03.744,-11
0:03.746,-10
0:03.748,-12
0:03.750,-14
0:03.752,-9
0:03.754,-8
0:03.756,-6
0:03.758,-5
0:03.760,-8
0:03.762,-8
0:03.764,-11
0:03.766,-11
0:03.768,-13
0:03.770,-13
0:03.772,-13
0:03.774,-12
0:03.776,-5
0:03.778,-6
0:03.780,-3
0:03.782,-8
0:03.784,-12
0:03.786,-13
0:03.788,-14
0:03.790,-15
0:03.792,-12
0:03.794,-10
0:03.796,-5
0:03.798,-5
0:03.800,-5
0:03.802,-6
0:03.804,-9
0:03.806,-11
0:03.808,-12
0:03.810,-16
0:03.812,-15
0:03.814,-14
0:03.816,-12
0:03.818,-7
0:03.820,-7
0:03.822,-11
0:03.824,-11
0:03.826,-13
0:03.828,-15
0:03.830,-15
0:03.832,-13
0:03.834,-9
0:03.836,-7
0:03.838,-5
0:03.840,-7
0:03.842,-7
0:03.844,-8
0:03.846,-9
0:03.848,-12
0:03.850,-12
0:03.852,-8
0:03.854,-7
0:03.856,-6
0:03.858,-4
0:03.860,-3
0:03.862,-6
0:03.864,-7
0:03.866,-8
0:03.868,-10
0:03.870,-9
0:03.872,-10
0:03.874,-5
0:03.876,1
0:03.878,2
0:03.880,4
0:03.882,6
0:03.884,7
0:03.886,6
0:03.888,7
0:03.890,5
0:03.892,8
0:03.894,9
0:03.896,11
0:03.898,13
0:03.900,15
0:03.902,13
0:03.904,11
0:03.906,9
0:03.908,8
0:03.910,11
0:03.912,13
0:03.914,18
0:03.916,21
0:03.918,25
0:03.920,26
0:03.922,19
0:03.924,18
0:03.926,20
0:03.928,18
0:03.930,19
0:03.932,20
0:03.934,22
0:03.936,25
0:03.938,27
0:03.940,29
0:03.942,29
0:03.944,26
0:03.946,27
0:03.948,24
0:03.950,25
0:03.952,25
0:03.954,27
0:03.956,29
0:03.958,31
0:03.960,34
0:03.962,32
0:03.964,33
0:03.966,33
0:03.968,31
0:03.970,31
0:03.972,32
0:03.974,31
0:03.976,33
0:03.978,36
0:03.980,33
0:03.982,32
0:03.984,32
0:03.986,32
0:03.988,28
0:03.990,26
0:03.992,28
0:03.994,28
0:03.996,27
0:03.998,27
0:04.000,26
0:04.002,22
0:04.004,22
0:04.006,19
0:04.008,18
0:04.010,19
0:04.012,21
0:04.014,24
0:04.016,25
0:04.018,24
0:04.020,22
0:04.022,21
0:04.024,18
0:04.026,17
0:04.028,14
0:04.030,17
0:04.032,21
0:04.034,20
0:04.036,21
0:04.038,20
0:04.040,19
0:04.042,16
0:04.044,14
0:04.046,15
0:04.048,11
0:04.050,14
0:04.052,14
0:04.054,16
0:04.056,17
0:04.058,20
0:04.060,17
0:04.062,13
0:04.064,12
0:04.066,10
0:04.068,10
0:04.070,11
0:04.072,14
0:04.074,16
0:04.076,17
0:04.078,17
0:04.080,14
0:04.082,13
0:04.084,13
0:04.086,9
0:04.088,13
0:04.090,13
0:04.092,13
0:04.094,14
0:04.096,12
0:04.098,14
0:04.100,12
0:04.102,7
0:04.104,6
0:04.106,8
0:04.108,11
0:04.110,17
0:04.112,26
0:04.114,37
0:04.116,47
0:04.118,58
0:04.120,66
0:04.122,79
0:04.124,100
0:04.126,121
0:04.128,141
0:04.130,151
0:04.132,151
0:04.134,148
0:04.136,139
0:04.138,123
0:04.140,103
0:04.142,86
0:04.144,65
0:04.146,38
0:04.148,14
0:04.150,-3
0:04.152,-9
0:04.154,-8
0:04.156,-4
0:04.158,3
0:04.160,5
0:04.162,5
0:04.164,8
0:04.166,12
0:04.168,17
0:04.170,18
0:04.172,20
0:04.174,24
0:04.176,22
0:04.178,18
0:04.180,15
0:04.182,14
0:04.184,13
0:04.186,14
0:04.188,14
0:04.190,17
0:04.192,18
0:04.194,21
0:04.196,21
0:04.198,22
0:04.200,19
0:04.202,19
0:04.204,17
0:04.206,17
0:04.208,17
0:04.210,20
0:04.212,22
0:04.214,24
0:04.216,26
0:04.218,22
0:04.220,18
0:04.222,15
0:04.224,14
0:04.226,14
0:04.228,15
0:04.230,19
0:04.232,23
0:04.234,25
0:04.236,26
0:04.238,25
0:04.240,23
0:04.242,21
0:04.244,20
0:04.246,21
0:04.248,22
0:04.250,24
0:04.252,25
0:04.254,25
0:04.256,26
0:04.258,26
0:04.260,21
0:04.262,21
0:04.264,24
0:04.266,21
0:04.268,22
0:04.270,24
0:04.272,26
0:04.274,29
0:04.276,33
0:04.278,30
0:04.280,28
0:04.282,26
0:04.284,25
0:04.286,26
0:04.288,26
0:04.290,28
0:04.292,28
0:04.294,29
0:04.296,33
0:04.298,34
0:04.300,32
0:04.302,32
0:04.304,33
0:04.306,32
0:04.308,37
0:04.310,36
0:04.312,39
0:04.314,40
0:04.316,42
0:04.318,41
0:04.320,40
0:04.322,40
0:04.324,40
0:04.326,40
0:04.328,43
0:04.330,45
0:04.332,50
0:04.334,52
0:04.336,54
0:04.338,51
0:04.340,51
0:04.342,52
0:04.344,52
0:04.346,49
0:04.348,52
0:04.350,54
0:04.352,53
0:04.354,54
0:04.356,51
0:04.358,53
0:04.360,52
0:04.362,49
0:04.364,48
0:04.366,47
0:04.368,48
0:04.370,51
0:04.372,47
0:04.374,48
0:04.376,48
0:04.378,44
0:04.380,40
0:04.382,36
0:04.384,33
0:04.386,30
0:04.388,31
0:04.390,31
0:04.392,30
0:04.394,27
0:04.396,24
0:04.398,18
0:04.400,17
0:04.402,14
0:04.404,10
0:04.406,8
0:04.408,9
0:04.410,9
0:04.412,8
0:04.414,10
0:04.416,9
0:04.418,6
0:04.420,2
0:04.422,-1
0:04.424,-3
0:04.426,-5
0:04.428,-3
0:04.430,-2
0:04.432,0
0:04.434,1
0:04.436,1
0:04.438,-4
0:04.440,-6
0:04.442,-9
0:04.444,-12
0:04.446,-8
0:04.448,-8
0:04.450,-4
0:04.452,-3
0:04.454,-3
0:04.456,-2
0:04.458,-4
0:04.460,-10
0:04.462,-11
0:04.464,-15
0:04.466,-12
0:04.468,-11
0:04.470,-7
0:04.472,-6
0:04.474,-6
0:04.476,-5
0:04.478,-8
0:04.480,-12
0:04.482,-11
0:04.484,-11
0:04.486,-13
0:04.488,-12
0:04.490,-10
0:04.492,-6
0:04.494,-4
0:04.496,-4
0:04.498,-6
0:04.500,-8
0:04.502,-10
0:04.504,-13
0:04.506,-14
0:04.508,-11
0:04.510,-7
0:04.512,-5
0:04.514,-4
0:04.516,-3
0:04.518,-6
0:04.520,-9
0:04.522,-9
0:04.524,-10
0:04.526,-8
0:04.528,-5
0:04.530,-3
0:04.532,-3
0:04.534,0
0:04.536,-2
0:04.538,-7
0:04.540,-11
0:04.542,-8
0:04.544,-13
0:04.546,-8
0:04.548,-10
0:04.550,-7
0:04.552,-2
0:04.554,1
0:04.556,-4
0:04.558,-8
0:04.560,-8
0:04.562,-8
0:04.564,-13
0:04.566,-9
0:04.568,-7
0:04.570,-5
0:04.572,-5
0:04.574,-2
0:04.576,-3
0:04.578,-7
0:04.580,-7
0:04.582,-9
0:04.584,-10
0:04.586,-10
0:04.588,-8
0:04.590,-8
0:04.592,-9
0:04.594,-5
0:04.596,-8
0:04.598,-9
0:04.600,-11
0:04.602,-14
0:04.604,-14
0:04.606,-12
0:04.608,-9
0:04.610,-7
0:04.612,-6
0:04.614,-5
0:04.616,-5
0:04.618,-7
0:04.620,-10
0:04.622,-15
0:04.624,-20
0:04.626,-14
0:04.628,-10
0:04.630,-10
0:04.632,-8
0:04.634,-7
0:04.636,-8
0:04.638,-10
0:04.640,-12
0:04.642,-15
0:04.644,-14
0:04.646,-10
0:04.648,-10
0:04.650,-10
0:04.652,-8
0:04.654,-7
0:04.656,-9
0:04.658,-12
0:04.660,-14
0:04.662,-15
0:04.664,-16
0:04.666,-15
0:04.668,-8
0:04.670,-9
0:04.672,-8
0:04.674,-7
0:04.676,-11
0:04.678,-11
0:04.680,-13
0:04.682,-15
0:04.684,-15
0:04.686,-12
0:04.688,-13
0:04.690,-12
0:04.692,-11
0:04.694,-9
0:04.696,-9
0:04.698,-12
0:04.700,-16
0:04.702,-14
0:04.704,-15
0:04.706,-12
0:04.708,-11
0:04.710,-13
0:04.712,-9
0:04.714,-9
0:04.716,-10
0:04.718,-13
0:04.720,-13
0:04.722,-15
0:04.724,-16
0:04.726,-13
0:04.728,-11
0:04.730,-10
0:04.732,-10
0:04.734,-8
0:04.736,-12
0:04.738,-13
0:04.740,-15
0:04.742,-17
0:04.744,-16
0:04.746,-13
0:04.748,-12
0:04.750,-11
0:04.752,-10
0:04.754,-7
0:04.756,-13
0:04.758,-14
0:04.760,-11
0:04.762,-17
0:04.764,-14
0:04.766,-13
0:04.768,-9
0:04.770,-12
0:04.772,-10
0:04.774,-9
0:04.776,-14
0:04.778,-16
0:04.780,-15
0:04.782,-17
0:04.784,-18
0:04.786,-14
0:04.788,-10
0:04.790,-11
0:04.792,-9
0:04.794,-8
0:04.796,-10
0:04.798,-15
0:04.800,-15
0:04.802,-18
0:04.804,-18
0:04.806,-15
0:04.808,-14
0:04.810,-12
0:04.812,-9
0:04.814,-10
0:04.816,-13
0:04.818,-16
0:04.820,-15
0:04.822,-15
0:04.824,-13
0:04.826,-13
0:04.828,-13
0:04.830,-13
0:04.832,-10
0:04.834,-13
0:04.836,-15
0:04.838,-15
0:04.840,-15
0:04.842,-17
0:04.844,-15
0:04.846,-12
0:04.848,-8
0:04.850,-8
0:04.852,-6
0:04.854,-6
0:04.856,-9
0:04.858,-11
0:04.860,-11
0:04.862,-10
0:04.864,-9
0:04.866,-8
0:04.868,-7
0:04.870,-3
0:04.872,0
0:04.874,-1
0:04.876,-3
0:04.878,-4
0:04.880,-4
0:04.882,-3
0:04.884,0
0:04.886,-2
0:04.888,1
0:04.890,2
0:04.892,2
0:04.894,-1
0:04.896,-2
0:04.898,-3
0:04.900,-3
0:04.902,-5
0:04.904,-4
0:04.906,-2
0:04.908,2
0:04.910,0
0:04.912,-1
0:04.914,-6
0:04.916,-9
0:04.918,-12
0:04.920,-13
0:04.922,-16
0:04.924,-16
0:04.926,-14
0:04.928,-13
0:04.930,-10
0:04.932,-9
0:04.934,-12
0:04.936,-13
0:04.938,-15
0:04.940,-18
0:04.942,-21
0:04.944,-17
0:04.946,-13
0:04.948,-13
0:04.950,-14
0:04.952,-11
0:04.954,-12
0:04.956,-15
0:04.958,-19
0:04.960,-21
0:04.962,-24
0:04.964,-22
0:04.966,-15
0:04.968,-16
0:04.970,-14
0:04.972,-12
0:04.974,-16
0:04.976,-19
0:04.978,-22
0:04.980,-20
0:04.982,-18
0:04.984,-19
0:04.986,-17
0:04.988,-15
0:04.990,-15
0:04.992,-13
0:04.994,-16
0:04.996,-20
0:04.998,-20
0:05.000,-20
0:05.002,-20
0:05.004,-18
0:05.006,-18
0:05.008,-16
0:05.010,-19
0:05.012,-18
0:05.014,-20
0:05.016,-21
0:05.018,-25
0:05.020,-29
0:05.022,-29
0:05.024,-23
0:05.026,-15
0:05.028,-4
0:05.030,7
0:05.032,18
0:05.034,24
0:05.036,36
0:05.038,49
0:05.040,65
0:05.042,85
0:05.044,111
0:05.046,128
0:05.048,130
0:05.050,129
0:05.052,119
0:05.054,104
0:05.056,85
0:05.058,67
0:05.060,49
0:05.062,26
0:05.064,4
0:05.066,-18
0:05.068,-33
0:05.070,-34
0:05.072,-29
0:05.074,-25
0:05.076,-25
0:05.078,-23
0:05.080,-21
0:05.082,-19
0:05.084,-14
0:05.086,-12
0:05.088,-8
0:05.090,-8
0:05.092,-7
0:05.094,-11
0:05.096,-14
0:05.098,-17
0:05.100,-17
0:05.102,-16
0:05.104,-13
0:05.106,-10
0:05.108,-7
0:05.110,-5
0:05.112,-5
0:05.114,-6
0:05.116,-5
0:05.118,-12
0:05.120,-15
0:05.122,-14
0:05.124,-12
0:05.126,-10
0:05.128,-10
0:05.130,-6
0:05.132,-6
0:05.134,-8
0:05.136,-10
0:05.138,-10
0:05.140,-12
0:05.142,-10
0:05.144,-9
0:05.146,-6
0:05.148,-3
0:05.150,-2
0:05.152,-6
0:05.154,-7
0:05.156,-7
0:05.158,-8
0:05.160,-8
0:05.162,-6
0:05.164,-3
0:05.166,-2
0:05.168,-1
0:05.170,2
0:05.172,1
0:05.174,-4
0:05.176,-6
0:05.178,-8
0:05.180,-9
0:05.182,-9
0:05.184,-4
0:05.186,-2
0:05.188,1
0:05.190,4
0:05.192,3
0:05.194,0
0:05.196,-1
0:05.198,-3
0:05.200,-2
0:05.202,1
0:05.204,3
0:05.206,4
0:05.208,6
0:05.210,10
0:05.212,7
0:05.214,4
0:05.216,5
0:05.218,6
0:05.220,6
0:05.222,10
0:05.224,12
0:05.226,16
0:05.228,17
0:05.230,22
0:05.232,20
0:05.234,16
0:05.236,15
0:05.238,14
0:05.240,16
0:05.242,19
0:05.244,23
0:05.246,25
0:05.248,30
0:05.250,32
0:05.252,32
0:05.254,32
0:05.256,29
0:05.258,29
0:05.260,27
0:05.262,32
0:05.264,35
0:05.266,37
0:05.268,38
0:05.270,39
0:05.272,38
0:05.274,37
0:05.276,35
0:05.278,34
0:05.280,33
0:05.282,36
0:05.284,35
0:05.286,35
0:05.288,34
0:05.290,35
0:05.292,31
0:05.294,29
0:05.296,26
0:05.298,23
0:05.300,21
0:05.302,22
0:05.304,23
0:05.306,22
0:05.308,22
0:05.310,21
0:05.312,16
0:05.314,13
0:05.316,9
0:05.318,3
0:05.320,2
0:05.322,3
0:05.324,3
0:05.326,3
0:05.328,0
0:05.330,3
0:05.332,3
0:05.334,-4
0:05.336,-7
0:05.338,-9
0:05.340,-8
0:05.342,-8
0:05.344,-7
0:05.346,-8
0:05.348,-5
0:05.350,-4
0:05.352,-9
0:05.354,-10
0:05.356,-13
0:05.358,-14
0:05.360,-13
0:05.362,-9
0:05.364,-9
0:05.366,-11
0:05.368,-9
0:05.370,-9
0:05.372,-11
0:05.374,-14
0:05.376,-16
0:05.378,-17
0:05.380,-17
0:05.382,-17
0:05.384,-12
0:05.386,-13
0:05.388,-9
0:05.390,-10
0:05.392,-12
0:05.394,-15
0:05.396,-18
0:05.398,-17
0:05.400,-14
0:05.402,-13
0:05.404,-12
0:05.406,-8
0:05.408,-9
0:05.410,-10
0:05.412,-11
0:05.414,-12
0:05.416,-14
0:05.418,-16
0:05.420,-15
0:05.422,-12
0:05.424,-13
0:05.426,-10
0:05.428,-6
0:05.430,-8
0:05.432,-11
0:05.434,-11
0:05.436,-11
0:05.438,-12
0:05.440,-12
0:05.442,-9
0:05.444,-5
0:05.446,-4
0:05.448,-2
0:05.450,-5
0:05.452,-11
0:05.454,-12
0:05.456,-13
0:05.458,-13
0:05.460,-11
0:05.462,-9
0:05.464,-7
0:05.466,-5
0:05.468,-5
0:05.470,-7
0:05.472,-10
0:05.474,-9
0:05.476,-10
0:05.478,-11
0:05.480,-10
0:05.482,-8
0:05.484,-5
0:05.486,-4
0:05.488,-3
0:05.490,-4
0:05.492,-7
0:05.494,-7
0:05.496,-9
0:05.498,-11
0:05.500,-9
0:05.502,-7
0:05.504,-7
0:05.506,-6
0:05.508,-5
0:05.510,-6
0:05.512,-9
0:05.514,-8
0:05.516,-10
0:05.518,-11
0:05.520,-12
0:05.522,-8
0:05.524,-6
0:05.526,-6
0:05.528,-6
0:05.530,-10
0:05.532,-11
0:05.534,-12
0:05.536,-12
0:05.538,-14
0:05.540,-12
0:05.542,-10
0:05.544,-9
0:05.546,-8
0:05.548,-6
0:05.550,-8
0:05.552,-12
0:05.554,-12
0:05.556,-13
0:05.558,-14
0:05.560,-13
0:05.562,-11
0:05.564,-9
0:05.566,-9
0:05.568,-9
0:05.570,-11
0:05.572,-10
0:05.574,-11
0:05.576,-14
0:05.578,-14
0:05.580,-13
0:05.582,-12
0:05.584,-9
0:05.586,-8
0:05.588,-10
0:05.590,-11
0:05.592,-10
0:05.594,-12
0:05.596,-14
0:05.598,-14
0:05.600,-12
0:05.602,-11
0:05.604,-11
0:05.606,-9
0:05.608,-11
0:05.610,-13
0:05.612,-14
0:05.614,-13
0:05.616,-15
0:05.618,-17
0:05.620,-14
0:05.622,-12
0:05.624,-10
0:05.626,-10
0:05.628,-9
0:05.630,-11
0:05.632,-13
0:05.634,-11
0:05.636,-13
0:05.638,-14
0:05.640,-11
0:05.642,-11
0:05.644,-12
0:05.646,-8
0:05.648,-6
0:05.650,-10
0:05.652,-13
0:05.654,-17
0:05.656,-13
0:05.658,-14
0:05.660,-12
0:05.662,-8
0:05.664,-9
0:05.666,-9
0:05.668,-8
0:05.670,-11
0:05.672,-13
0:05.674,-16
0:05.676,-18
0:05.678,-16
0:05.680,-13
0:05.682,-10
0:05.684,-10
0:05.686,-10
0:05.688,-11
0:05.690,-14
0:05.692,-12
0:05.694,-13
0:05.696,-13
0:05.698,-16
0:05.700,-13
0:05.702,-11
0:05.704,-9
0:05.706,-9
0:05.708,-9
0:05.710,-11
0:05.712,-13
0:05.714,-13
0:05.716,-15
0:05.718,-15
0:05.720,-13
0:05.722,-8
0:05.724,-8
0:05.726,-7
0:05.728,-8
0:05.730,-9
0:05.732,-12
0:05.734,-11
0:05.736,-15
0:05.738,-14
0:05.740,-11
0:05.742,-7
0:05.744,-9
0:05.746,-9
0:05.748,-11
0:05.750,-13
0:05.752,-14
0:05.754,-15
0:05.756,-18
0:05.758,-14
0:05.760,-11
0:05.762,-10
0:05.764,-8
0:05.766,-8
0:05.768,-8
0:05.770,-13
0:05.772,-12
0:05.774,-17
0:05.776,-15
0:05.778,-15
0:05.780,-10
0:05.782,-6
0:05.784,-2
0:05.786,0
0:05.788,-3
0:05.790,-5
0:05.792,-8
0:05.794,-10
0:05.796,-9
0:05.798,-7
0:05.800,-4
0:05.802,-2
0:05.804,0
0:05.806,4
0:05.808,-2
0:05.810,-4
0:05.812,-2
0:05.814,-2
0:05.816,-3
0:05.818,0
0:05.820,5
0:05.822,6
0:05.824,8
0:05.826,8
0:05.828,10
0:05.830,11
0:05.832,14
0:05.834,14
0:05.836,15
0:05.838,17
0:05.840,21
0:05.842,24
0:05.844,26
0:05.846,27
0:05.848,23
0:05.850,22
0:05.852,20
0:05.854,17
0:05.856,16
0:05.858,20
0:05.860,20
0:05.862,22
0:05.864,21
0:05.866,23
0:05.868,21
0:05.870,21
0:05.872,18
0:05.874,19
0:05.876,16
0:05.878,17
0:05.880,21
0:05.882,21
0:05.884,24
0:05.886,24
0:05.888,22
0:05.890,18
0:05.892,18
0:05.894,16
0:05.896,13
0:05.898,15
0:05.900,18
0:05.902,19
0:05.904,19
0:05.906,24
0:05.908,20
0:05.910,18
0:05.912,20
0:05.914,17
0:05.916,14
0:05.918,14
0:05.920,17
0:05.922,20
0:05.924,20
0:05.926,18
0:05.928,20
0:05.930,17
0:05.932,17
0:05.934,14
0:05.936,14
0:05.938,15
0:05.940,15
0:05.942,14
0:05.944,17
0:05.946,14
0:05.948,14
0:05.950,11
0:05.952,9
0:05.954,6
0:05.956,6
0:05.958,10
0:05.960,16
0:05.962,28
0:05.964,43
0:05.966,52
0:05.968,61
0:05.970,73
0:05.972,83
0:05.974,99
0:05.976,119
0:05.978,146
0:05.980,170
0:05.982,173
0:05.984,172
0:05.986,162
0:05.988,146
0:05.990,127
0:05.992,109
0:05.994,85
0:05.996,63
0:05.998,41
0:06.000,18
0:06.002,2
0:06.004,2
0:06.006,8
0:06.008,6
0:06.010,8
0:06.012,10
0:06.014,14
0:06.016,18
0:06.018,23
0:06.020,24
0:06.022,26
0:06.024,26
0:06.026,24
0:06.028,22
0:06.030,21
0:06.032,19
0:06.034,17
0:06.036,18
0:06.038,20
0:06.040,21
0:06.042,22
0:06.044,25
0:06.046,25
0:06.048,22
0:06.050,21
0:06.052,21
0:06.054,17
0:06.056,18
0:06.058,21
0:06.060,21
0:06.062,22
0:06.064,23
0:06.066,24
0:06.068,21
0:06.070,19
0:06.072,19
0:06.074,17
0:06.076,19
0:06.078,22
0:06.080,24
0:06.082,25
0:06.084,27
0:06.086,29
0:06.088,26
0:06.090,22
0:06.092,21
0:06.094,22
0:06.096,23
0:06.098,26
0:06.100,25
0:06.102,29
0:06.104,32
0:06.106,30
0:06.108,27
0:06.110,24
0:06.112,24
0:06.114,24
0:06.116,24
0:06.118,27
0:06.120,29
0:06.122,33
0:06.124,35
0:06.126,33
0:06.128,32
0:06.130,33
0:06.132,33
0:06.134,30
0:06.136,29
0:06.138,31
0:06.140,31
0:06.142,31
0:06.144,32
0:06.146,29
0:06.148,33
0:06.150,35
0:06.152,33
0:06.154,31
0:06.156,35
0:06.158,38
0:06.160,40
0:06.162,45
0:06.164,44
0:06.166,46
0:06.168,46
0:06.170,48
0:06.172,46
0:06.174,45
0:06.176,49
0:06.178,51
0:06.180,52
0:06.182,58
0:06.184,57
0:06.186,54
0:06.188,53
0:06.190,59
0:06.192,63
0:06.194,60
0:06.196,60
0:06.198,60
0:06.200,62
0:06.202,65
0:06.204,64
0:06.206,65
0:06.208,63
0:06.210,63
0:06.212,61
0:06.214,60
0:06.216,61
0:06.218,63
0:06.220,62
0:06.222,62
0:06.224,61
0:06.226,59
0:06.228,57
0:06.230,54
0:06.232,48
0:06.234,45
0:06.236,44
0:06.238,44
0:06.240,44
0:06.242,42
0:06.244,39
0:06.246,33
0:06.248,30
0:06.250,28
0:06.252,27
0:06.254,20
0:06.256,20
0:06.258,19
0:06.260,24
0:06.262,21
0:06.264,20
0:06.266,16
0:06.268,10
0:06.270,7
0:06.272,5
0:06.274,3
0:06.276,1
0:06.278,4
0:06.280,4
0:06.282,4
0:06.284,6
0:06.286,3
0:06.288,-2
0:06.290,-7
0:06.292,-6
0:06.294,-4
0:06.296,-3
0:06.298,-2
0:06.300,0
0:06.302,1
0:06.304,1
0:06.306,-4
0:06.308,-6
0:06.310,-9
0:06.312,-8
0:06.314,-7
0:06.316,-6
0:06.318,-6
0:06.320,-3
0:06.322,-3
0:06.324,-2
0:06.326,-7
0:06.328,-9
0:06.330,-9
0:06.332,-11
0:06.334,-11
0:06.336,-6
0:06.338,-5
0:06.340,-5
0:06.342,-6
0:06.344,-8
0:06.346,-11
0:06.348,-13
0:06.350,-14
0:06.352,-15
0:06.354,-14
0:06.356,-11
0:06.358,-7
0:06.360,-6
0:06.362,-5
0:06.364,-8
0:06.366,-11
0:06.368,-14
0:06.370,-18
0:06.372,-17
0:06.374,-13
0:06.376,-12
0:06.378,-9
0:06.380,-9
0:06.382,-6
0:06.384,-8
0:06.386,-11
0:06.388,-12
0:06.390,-12
0:06.392,-14
0:06.394,-11
0:06.396,-10
0:06.398,-7
0:06.400,-6
0:06.402,-5
0:06.404,-6
0:06.406,-9
0:06.408,-10
0:06.410,-12
0:06.412,-13
0:06.414,-11
0:06.416,-9
0:06.418,-7
0:06.420,-7
0:06.422,-6
0:06.424,-10
0:06.426,-10
0:06.428,-9
0:06.430,-10
0:06.432,-11
0:06.434,-8
0:06.436,-6
0:06.438,-9
0:06.440,-8
0:06.442,-11
0:06.444,-15
0:06.446,-19
0:06.448,-20
0:06.450,-19
0:06.452,-18
0:06.454,-16
0:06.456,-16
0:06.458,-10
0:06.460,-9
0:06.462,-10
0:06.464,-10
0:06.466,-14
0:06.468,-16
0:06.470,-17
0:06.472,-19
0:06.474,-15
0:06.476,-13
0:06.478,-10
0:06.480,-9
0:06.482,-10
0:06.484,-11
0:06.486,-15
0:06.488,-16
0:06.490,-18
0:06.492,-18
0:06.494,-16
0:06.496,-16
0:06.498,-15
0:06.500,-15
0:06.502,-12
0:06.504,-15
0:06.506,-18
0:06.508,-18
0:06.510,-17
0:06.512,-19
0:06.514,-19
0:06.516,-16
0:06.518,-17
0:06.520,-18
0:06.522,-16
0:06.524,-17
0:06.526,-20
0:06.528,-26
0:06.530,-23
0:06.532,-23
0:06.534,-19
0:06.536,-18
0:06.538,-18
0:06.540,-16
0:06.542,-16
0:06.544,-17
0:06.546,-16
0:06.548,-21
0:06.550,-23
0:06.552,-23
0:06.554,-22
0:06.556,-19
0:06.558,-18
0:06.560,-16
0:06.562,-16
0:06.564,-17
0:06.566,-19
0:06.568,-20
0:06.570,-23
0:06.572,-24
0:06.574,-22
0:06.576,-23
0:06.578,-19
0:06.580,-16
0:06.582,-16
0:06.584,-17
0:06.586,-20
0:06.588,-23
0:06.590,-21
0:06.592,-23
0:06.594,-22
0:06.596,-23
0:06.598,-20
0:06.600,-20
0:06.602,-19
0:06.604,-19
0:06.606,-22
0:06.608,-22
0:06.610,-24
0:06.612,-21
0:06.614,-17
0:06.616,-18
0:06.618,-16
0:06.620,-19
0:06.622,-19
0:06.624,-20
0:06.626,-25
0:06.628,-24
0:06.630,-25
0:06.632,-20
0:06.634,-18
0:06.636,-21
0:06.638,-21
0:06.640,-17
0:06.642,-16
0:06.644,-18
0:06.646,-22
0:06.648,-20
0:06.650,-21
0:06.652,-24
0:06.654,-20
0:06.656,-19
0:06.658,-17
0:06.660,-17
0:06.662,-17
0:06.664,-19
0:06.666,-22
0:06.668,-22
0:06.670,-23
0:06.672,-22
0:06.674,-15
0:06.676,-14
0:06.678,-13
0:06.680,-11
0:06.682,-9
0:06.684,-14
0:06.686,-16
0:06.688,-16
0:06.690,-16
0:06.692,-17
0:06.694,-16
0:06.696,-14
0:06.698,-14
0:06.700,-11
0:06.702,-9
0:06.704,-11
0:06.706,-13
0:06.708,-13
0:06.710,-13
0:06.712,-9
0:06.714,-10
0:06.716,-5
0:06.718,-8
0:06.720,-2
0:06.722,-7
0:06.724,-8
0:06.726,-10
0:06.728,-11
0:06.730,-13
0:06.732,-11
0:06.734,-9
0:06.736,-9
0:06.738,-10
0:06.740,-7
0:06.742,-15
0:06.744,-19
0:06.746,-19
0:06.748,-20
0:06.750,-23
0:06.752,-25
0:06.754,-22
0:06.756,-16
0:06.758,-21
0:06.760,-22
0:06.762,-23
0:06.764,-23
0:06.766,-22
0:06.768,-22
0:06.770,-26
0:06.772,-24
0:06.774,-20
0:06.776,-24
0:06.778,-19
0:06.780,-19
0:06.782,-22
0:06.784,-22
0:06.786,-23
0:06.788,-25
0:06.790,-27
0:06.792,-27
0:06.794,-23
0:06.796,-22
0:06.798,-23
0:06.800,-21
0:06.802,-25
0:06.804,-27
0:06.806,-26
0:06.808,-26
0:06.810,-27
0:06.812,-26
0:06.814,-22
0:06.816,-21
0:06.818,-20
0:06.820,-22
0:06.822,-23
0:06.824,-27
0:06.826,-27
0:06.828,-27
0:06.830,-27
0:06.832,-31
0:06.834,-29
0:06.836,-26
0:06.838,-26
0:06.840,-28
0:06.842,-32
0:06.844,-37
0:06.846,-35
0:06.848,-33
0:06.850,-25
0:06.852,-12
0:06.854,-1
0:06.856,9
0:06.858,21
0:06.860,36
0:06.862,49
0:06.864,66
0:06.866,87
0:06.868,103
0:06.870,111
0:06.872,111
0:06.874,105
0:06.876,96
0:06.878,83
0:06.880,72
0:06.882,51
0:06.884,27
0:06.886,-2
0:06.888,-23
0:06.890,-39
0:06.892,-43
0:06.894,-43
0:06.896,-38
0:06.898,-33
0:06.900,-32
0:06.902,-30
0:06.904,-25
0:06.906,-21
0:06.908,-22
0:06.910,-18
0:06.912,-18
0:06.914,-16
0:06.916,-16
0:06.918,-16
0:06.920,-17
0:06.922,-18
0:06.924,-21
0:06.926,-23
0:06.928,-23
0:06.930,-23
0:06.932,-19
0:06.934,-19
0:06.936,-19
0:06.938,-15
0:06.940,-17
0:06.942,-19
0:06.944,-19
0:06.946,-18
0:06.948,-21
0:06.950,-18
0:06.952,-13
0:06.954,-15
0:06.956,-15
0:06.958,-13
0:06.960,-12
0:06.962,-14
0:06.964,-18
0:06.966,-19
0:06.968,-20
0:06.970,-18
0:06.972,-13
0:06.974,-12
0:06.976,-11
0:06.978,-6
0:06.980,-11
0:06.982,-14
0:06.984,-14
0:06.986,-15
0:06.988,-14
0:06.990,-14
0:06.992,-12
0:06.994,-11
0:06.996,-10
0:06.998,-8
0:07.000,-11
0:07.002,-10
0:07.004,-9
0:07.006,-11
0:07.008,-12
0:07.010,-8
0:07.012,-6
0:07.014,-6
0:07.016,-4
0:07.018,-4
0:07.020,-7
0:07.022,-7
0:07.024,-7
0:07.026,-7
0:07.028,-8
0:07.030,-7
0:07.032,-1
0:07.034,4
0:07.036,4
0:07.038,4
0:07.040,2
0:07.042,3
0:07.044,2
0:07.046,2
0:07.048,3
0:07.050,4
0:07.052,5
0:07.054,4
0:07.056,7
0:07.058,11
0:07.060,13
0:07.062,11
0:07.064,12
0:07.066,12
0:07.068,14
0:07.070,20
0:07.072,23
0:07.074,23
0:07.076,21
0:07.078,25
0:07.080,25
0:07.082,23
0:07.084,21
0:07.086,23
0:07.088,22
0:07.090,25
0:07.092,25
0:07.094,26
0:07.096,29
0:07.098,30
0:07.100,27
0:07.102,26
0:07.104,26
0:07.106,23
0:07.108,22
0:07.110,26
0:07.112,27
0:07.114,27
0:07.116,26
0:07.118,26
0:07.120,23
0:07.122,17
0:07.124,15
0:07.126,13
0:07.128,12
0:07.130,11
0:07.132,10
0:07.134,6
0:07.136,8
0:07.138,6
0:07.140,4
0:07.142,-3
0:07.144,-5
0:07.146,-6
0:07.148,-6
0:07.150,-6
0:07.152,-6
0:07.154,-6
0:07.156,-4
0:07.158,-8
0:07.160,-10
0:07.162,-15
0:07.164,-17
0:07.166,-16
0:07.168,-16
0:07.170,-13
0:07.172,-14
0:07.174,-13
0:07.176,-11
0:07.178,-15
0:07.180,-18
0:07.182,-23
0:07.184,-20
0:07.186,-22
0:07.188,-23
0:07.190,-21
0:07.192,-19
0:07.194,-18
0:07.196,-15
0:07.198,-12
0:07.200,-19
0:07.202,-20
0:07.204,-25
0:07.206,-23
0:07.208,-23
0:07.210,-20
0:07.212,-20
0:07.214,-20
0:07.216,-18
0:07.218,-18
0:07.220,-20
0:07.222,-22
0:07.224,-21
0:07.226,-23
0:07.228,-21
0:07.230,-18
0:07.232,-16
0:07.234,-15
0:07.236,-15
0:07.238,-19
0:07.240,-20
0:07.242,-21
0:07.244,-24
0:07.246,-24
0:07.248,-23
0:07.250,-19
0:07.252,-19
0:07.254,-18
0:07.256,-14
0:07.258,-19
0:07.260,-19
0:07.262,-18
0:07.264,-21
0:07.266,-22
0:07.268,-18
0:07.270,-14
0:07.272,-14
0:07.274,-14
0:07.276,-14
0:07.278,-17
0:07.280,-20
0:07.282,-20
0:07.284,-20
0:07.286,-22
0:07.288,-22
0:07.290,-18
0:07.292,-18
0:07.294,-14
0:07.296,-14
0:07.298,-15
0:07.300,-19
0:07.302,-22
0:07.304,-20
0:07.306,-20
0:07.308,-19
0:07.310,-19
0:07.312,-16
0:07.314,-15
0:07.316,-10
0:07.318,-13
0:07.320,-17
0:07.322,-18
0:07.324,-22
0:07.326,-23
0:07.328,-20
0:07.330,-19
0:07.332,-17
0:07.334,-13
0:07.336,-12
0:07.338,-13
0:07.340,-19
0:07.342,-24
0:07.344,-20
0:07.346,-20
0:07.348,-21
0:07.350,-17
0:07.352,-15
0:07.354,-15
0:07.356,-14
0:07.358,-17
0:07.360,-20
0:07.362,-23
0:07.364,-24
0:07.366,-23
0:07.368,-20
0:07.370,-16
0:07.372,-18
0:07.374,-18
0:07.376,-14
0:07.378,-19
0:07.380,-23
0:07.382,-23
0:07.384,-23
0:07.386,-24
0:07.388,-23
0:07.390,-19
0:07.392,-20
0:07.394,-19
0:07.396,-15
0:07.398,-19
0:07.400,-22
0:07.402,-25
0:07.404,-24
0:07.406,-20
0:07.408,-23
0:07.410,-22
0:07.412,-20
0:07.414,-16
0:07.416,-19
0:07.418,-19
0:07.420,-22
0:07.422,-26
0:07.424,-24
0:07.426,-25
0:07.428,-24
0:07.430,-22
0:07.432,-21
0:07.434,-19
0:07.436,-20
0:07.438,-21
0:07.440,-24
0:07.442,-24
0:07.444,-25
0:07.446,-24
0:07.448,-21
0:07.450,-19
0:07.452,-19
0:07.454,-18
0:07.456,-20
0:07.458,-21
0:07.460,-23
0:07.462,-23
0:07.464,-28
0:07.466,-27
0:07.468,-24
0:07.470,-24
0:07.472,-22
0:07.474,-21
0:07.476,-19
0:07.478,-23
0:07.480,-26
0:07.482,-26
0:07.484,-23
0:07.486,-25
0:07.488,-21
0:07.490,-21
0:07.492,-19
0:07.494,-19
0:07.496,-22
0:07.498,-21
0:07.500,-21
0:07.502,-23
0:07.504,-27
0:07.506,-29
0:07.508,-23
0:07.510,-20
0:07.512,-22
0:07.514,-19
0:07.516,-19
0:07.518,-22
0:07.520,-23
0:07.522,-24
0:07.524,-26
0:07.526,-28
0:07.528,-25
0:07.530,-23
0:07.532,-20
0:07.534,-20
0:07.536,-22
0:07.538,-21
0:07.540,-21
0:07.542,-20
0:07.544,-25
0:07.546,-21
0:07.548,-16
0:07.550,-16
0:07.552,-12
0:07.554,-13
0:07.556,-13
0:07.558,-16
0:07.560,-19
0:07.562,-20
0:07.564,-22
0:07.566,-21
0:07.568,-15
0:07.570,-10
0:07.572,-10
0:07.574,-9
0:07.576,-10
0:07.578,-13
0:07.580,-14
0:07.582,-11
0:07.584,-13
0:07.586,-11
0:07.588,-12
0:07.590,-8
0:07.592,-7
0:07.594,-6
0:07.596,-9
0:07.598,-12
0:07.600,-13
0:07.602,-13
0:07.604,-15
0:07.606,-15
0:07.608,-15
0:07.610,-15
0:07.612,-10
0:07.614,-14
0:07.616,-19
0:07.618,-19
0:07.620,-22
0:07.622,-23
0:07.624,-27
0:07.626,-22
0:07.628,-21
0:07.630,-23
0:07.632,-21
0:07.634,-20
0:07.636,-21
0:07.638,-23
0:07.640,-27
0:07.642,-28
0:07.644,-26
0:07.646,-26
0:07.648,-24
0:07.650,-23
0:07.652,-20
0:07.654,-19
0:07.656,-21
0:07.658,-24
0:07.660,-24
0:07.662,-24
0:07.664,-30
0:07.666,-26
0:07.668,-24
0:07.670,-23
0:07.672,-27
0:07.674,-24
0:07.676,-22
0:07.678,-22
0:07.680,-23
0:07.682,-26
0:07.684,-27
0:07.686,-27
0:07.688,-25
0:07.690,-21
0:07.692,-22
0:07.694,-22
0:07.696,-27
0:07.698,-27
0:07.700,-30
0:07.702,-32
0:07.704,-32
0:07.706,-29
0:07.708,-30
0:07.710,-34
0:07.712,-30
0:07.714,-27
0:07.716,-23
0:07.718,-16
0:07.720,-8
0:07.722,0
0:07.724,6
0:07.726,19
0:07.728,31
0:07.730,48
0:07.732,69
0:07.734,83
0:07.736,100
0:07.738,97
0:07.740,93
0:07.742,79
0:07.744,70
0:07.746,57
0:07.748,48
0:07.750,35
0:07.752,17
0:07.754,-5
0:07.756,-27
0:07.758,-44
0:07.760,-45
0:07.762,-41
0:07.764,-36
0:07.766,-30
0:07.768,-27
0:07.770,-22
0:07.772,-19
0:07.774,-17
0:07.776,-15
0:07.778,-19
0:07.780,-21
0:07.782,-25
0:07.784,-24
0:07.786,-24
0:07.788,-22
0:07.790,-19
0:07.792,-16
0:07.794,-15
0:07.796,-17
0:07.798,-20
0:07.800,-24
0:07.802,-25
0:07.804,-22
0:07.806,-24
0:07.808,-23
0:07.810,-20
0:07.812,-18
0:07.814,-17
0:07.816,-20
0:07.818,-20
0:07.820,-18
0:07.822,-19
0:07.824,-17
0:07.826,-18
0:07.828,-18
0:07.830,-17
0:07.832,-13
0:07.834,-15
0:07.836,-16
0:07.838,-15
0:07.840,-16
0:07.842,-20
0:07.844,-18
0:07.846,-14
0:07.848,-11
0:07.850,-13
0:07.852,-13
0:07.854,-12
0:07.856,-7
0:07.858,-5
0:07.860,-3
0:07.862,0
0:07.864,3
0:07.866,8
0:07.868,8
0:07.870,15
0:07.872,17
0:07.874,17
0:07.876,18
0:07.878,19
0:07.880,14
0:07.882,16
0:07.884,20
0:07.886,20
0:07.888,24
0:07.890,27
0:07.892,29
0:07.894,25
0:07.896,27
0:07.898,26
0:07.900,23
0:07.902,27
0:07.904,29
0:07.906,36
0:07.908,38
0:07.910,35
0:07.912,37
0:07.914,38
0:07.916,36
0:07.918,37
0:07.920,36
0:07.922,37
0:07.924,39
0:07.926,43
0:07.928,42
0:07.930,44
0:07.932,50
0:07.934,51
0:07.936,50
0:07.938,52
0:07.940,49
0:07.942,52
0:07.944,52
0:07.946,57
0:07.948,55
0:07.950,61
0:07.952,61
0:07.954,59
0:07.956,58
0:07.958,54
0:07.960,55
0:07.962,56
0:07.964,57
0:07.966,59
0:07.968,64
0:07.970,58
0:07.972,64
0:07.974,61
0:07.976,60
0:07.978,56
0:07.980,52
0:07.982,54
0:07.984,52
0:07.986,54
0:07.988,54
0:07.990,53
0:07.992,53
0:07.994,48
0:07.996,43
0:07.998,45
0:08.000,42
0:08.002,36
0:08.004,35
0:08.006,34
0:08.008,34
0:08.010,37
0:08.012,32
0:08.014,29
0:08.016,25
0:08.018,23
0:08.020,20
0:08.022,22
0:08.024,21
0:08.026,20
0:08.028,26
0:08.030,22
0:08.032,21
0:08.034,17
0:08.036,14
0:08.038,13
0:08.040,13
0:08.042,12
0:08.044,15
0:08.046,15
0:08.048,14
0:08.050,13
0:08.052,13
0:08.054,12
0:08.056,9
0:08.058,7
0:08.060,7
0:08.062,4
0:08.064,7
0:08.066,10
0:08.068,10
0:08.070,14
0:08.072,14
0:08.074,10
0:08.076,10
0:08.078,8
0:08.080,6
0:08.082,7
0:08.084,10
0:08.086,10
0:08.088,14
0:08.090,16
0:08.092,11
0:08.094,9
0:08.096,8
0:08.098,6
0:08.100,8
0:08.102,4
0:08.104,8
0:08.106,10
0:08.108,10
0:08.110,12
0:08.112,9
0:08.114,7
0:08.116,7
0:08.118,5
0:08.120,5
0:08.122,6
0:08.124,8
0:08.126,10
0:08.128,11
0:08.130,13
0:08.132,10
0:08.134,9
0:08.136,6
0:08.138,4
0:08.140,3
0:08.142,2
0:08.144,3
0:08.146,6
0:08.148,8
0:08.150,10
0:08.152,8
0:08.154,5
0:08.156,4
0:08.158,1
0:08.160,2
0:08.162,2
0:08.164,6
0:08.166,7
0:08.168,9
0:08.170,7
0:08.172,7
0:08.174,3
0:08.176,2
0:08.178,0
0:08.180,-2
0:08.182,-1
0:08.184,3
0:08.186,3
0:08.188,2
0:08.190,5
0:08.192,3
0:08.194,1
0:08.196,-3
0:08.198,2
0:08.200,1
0:08.202,-1
0:08.204,1
0:08.206,2
0:08.208,4
0:08.210,0
0:08.212,2
0:08.214,-3
0:08.216,-8
0:08.218,-9
0:08.220,-10
0:08.222,-6
0:08.224,-3
0:08.226,-1
0:08.228,2
0:08.230,-6
0:08.232,0
0:08.234,-2
0:08.236,-2
0:08.238,-6
0:08.240,-5
0:08.242,-8
0:08.244,-7
0:08.246,-2
0:08.248,-1
0:08.250,-4
0:08.252,-6
0:08.254,-8
0:08.256,-6
0:08.258,-9
0:08.260,-12
0:08.262,-4
0:08.264,0
0:08.266,-5
0:08.268,-4
0:08.270,3
0:08.272,-7
0:08.274,-8
0:08.276,-12
0:08.278,-10
0:08.280,-7
0:08.282,-10
0:08.284,-7
0:08.286,-10
0:08.288,-8
0:08.290,-6
0:08.292,-6
0:08.294,-10
0:08.296,-9
0:08.298,-12
0:08.300,-16
0:08.302,-9
0:08.304,-8
0:08.306,-9
0:08.308,-8
0:08.310,-6
0:08.312,-13
0:08.314,-13
0:08.316,-11
0:08.318,-14
0:08.320,-15
0:08.322,-14
0:08.324,-11
0:08.326,-11
0:08.328,-12
0:08.330,-10
0:08.332,-13
0:08.334,-15
0:08.336,-15
0:08.338,-17
0:08.340,-19
0:08.342,-16
0:08.344,-14
0:08.346,-14
0:08.348,-13
0:08.350,-15
0:08.352,-15
0:08.354,-16
0:08.356,-15
0:08.358,-20
0:08.360,-17
0:08.362,-16
0:08.364,-15
0:08.366,-11
0:08.368,-12
0:08.370,-16
0:08.372,-18
0:08.374,-21
0:08.376,-22
0:08.378,-22
0:08.380,-20
0:08.382,-15
0:08.384,-13
0:08.386,-11
0:08.388,-10
0:08.390,-11
0:08.392,-15
0:08.394,-13
0:08.396,-12
0:08.398,-13
0:08.400,-11
0:08.402,-8
0:08.404,-9
0:08.406,-8
0:08.408,-9
0:08.410,-10
0:08.412,-14
0:08.414,-16
0:08.416,-16
0:08.418,-13
0:08.420,-5
0:08.422,-6
0:08.424,-6
0:08.426,-6
0:08.428,0
0:08.430,-2
0:08.432,-4
0:08.434,-7
0:08.436,-8
0:08.438,-9
0:08.440,-8
0:08.442,-5
0:08.444,-6
0:08.446,-6
0:08.448,-5
0:08.450,-1
0:08.452,-7
0:08.454,-9
0:08.456,-13
0:08.458,-20
0:08.460,-17
0:08.462,-16
0:08.464,-16
0:08.466,-16
0:08.468,-16
0:08.470,-18
0:08.472,-20
0:08.474,-23
0:08.476,-24
0:08.478,-27
0:08.480,-26
0:08.482,-21
0:08.484,-23
0:08.486,-20
0:08.488,-21
0:08.490,-19
0:08.492,-20
0:08.494,-24
0:08.496,-26
0:08.498,-27
0:08.500,-24
0:08.502,-23
0:08.504,-21
0:08.506,-21
0:08.508,-21
0:08.510,-24
0:08.512,-28
0:08.514,-27
0:08.516,-26
0:08.518,-29
0:08.520,-26
0:08.522,-22
0:08.524,-22
0:08.526,-26
0:08.528,-23
0:08.530,-22
0:08.532,-25
0:08.534,-28
0:08.536,-28
0:08.538,-32
0:08.540,-26
0:08.542,-25
0:08.544,-26
0:08.546,-30
0:08.548,-24
0:08.550,-29
0:08.552,-32
0:08.554,-35
0:08.556,-32
0:08.558,-39
0:08.560,-37
0:08.562,-28
0:08.564,-18
0:08.566,-9
0:08.568,2
0:08.570,10
0:08.572,14
0:08.574,24
0:08.576,38
0:08.578,56
0:08.580,78
0:08.582,101
0:08.584,104
0:08.586,102
0:08.588,94
0:08.590,77
0:08.592,66
0:08.594,50
0:08.596,31
0:08.598,12
0:08.600,-12
0:08.602,-27
0:08.604,-41
0:08.606,-44
0:08.608,-41
0:08.610,-42
0:08.612,-39
0:08.614,-33
0:08.616,-29
0:08.618,-26
0:08.620,-26
0:08.622,-22
0:08.624,-18
0:08.626,-19
0:08.628,-21
0:08.630,-23
0:08.632,-23
0:08.634,-23
0:08.636,-23
0:08.638,-22
0:08.640,-22
0:08.642,-16
0:08.644,-24
0:08.646,-20
0:08.648,-16
0:08.650,-22
0:08.652,-29
0:08.654,-25
0:08.656,-26
0:08.658,-23
0:08.660,-22
0:08.662,-16
0:08.664,-13
0:08.666,-14
0:08.668,-16
0:08.670,-19
0:08.672,-20
0:08.674,-19
0:08.676,-23
0:08.678,-22
0:08.680,-17
0:08.682,-18
0:08.684,-13
0:08.686,-8
0:08.688,-13
0:08.690,-9
0:08.692,-16
0:08.694,-13
0:08.696,-20
0:08.698,-21
0:08.700,-19
0:08.702,-16
0:08.704,-14
0:08.706,-12
0:08.708,-16
0:08.710,-16
0:08.712,-15
0:08.714,-11
0:08.716,-19
0:08.718,-15
0:08.720,-11
0:08.722,-7
0:08.724,-6
0:08.726,-6
0:08.728,-7
0:08.730,-9
0:08.732,-8
0:08.734,-9
0:08.736,-9
0:08.738,-9
0:08.740,-7
0:08.742,-3
0:08.744,0
0:08.746,1
0:08.748,0
0:08.750,-3
0:08.752,-4
0:08.754,-5
0:08.756,-3
0:08.758,0
0:08.760,-2
0:08.762,4
0:08.764,6
0:08.766,10
0:08.768,11
0:08.770,9
0:08.772,8
0:08.774,6
0:08.776,6
0:08.778,7
0:08.780,11
0:08.782,13
0:08.784,17
0:08.786,26
0:08.788,20
0:08.790,15
0:08.792,18
0:08.794,18
0:08.796,19
0:08.798,19
0:08.800,22
0:08.802,24
0:08.804,26
0:08.806,30
0:08.808,27
0:08.810,20
0:08.812,20
0:08.814,23
0:08.816,19
0:08.818,23
0:08.820,25
0:08.822,22
0:08.824,25
0:08.826,23
0:08.828,21
0:08.830,18
0:08.832,17
0:08.834,14
0:08.836,12
0:08.838,12
0:08.840,10
0:08.842,19
0:08.844,9
0:08.846,8
0:08.848,6
0:08.850,-1
0:08.852,-3
0:08.854,-2
0:08.856,-7
0:08.858,-8
0:08.860,-6
0:08.862,-8
0:08.864,-10
0:08.866,-8
0:08.868,-12
0:08.870,-20
0:08.872,-21
0:08.874,-21
0:08.876,-23
0:08.878,-19
0:08.880,-18
0:08.882,-13
0:08.884,-17
0:08.886,-18
0:08.888,-23
0:08.890,-27
0:08.892,-27
0:08.894,-23
0:08.896,-25
0:08.898,-25
0:08.900,-24
0:08.902,-22
0:08.904,-19
0:08.906,-20
0:08.908,-23
0:08.910,-25
0:08.912,-28
0:08.914,-29
0:08.916,-28
0:08.918,-24
0:08.920,-23
0:08.922,-21
0:08.924,-21
0:08.926,-20
0:08.928,-23
0:08.930,-24
0:08.932,-27
0:08.934,-28
0:08.936,-28
0:08.938,-25
0:08.940,-21
0:08.942,-22
0:08.944,-20
0:08.946,-21
0:08.948,-20
0:08.950,-21
0:08.952,-22
0:08.954,-25
0:08.956,-28
0:08.958,-25
0:08.960,-23
0:08.962,-27
0:08.964,-21
0:08.966,-22
0:08.968,-24
0:08.970,-25
0:08.972,-25
0:08.974,-25
0:08.976,-24
0:08.978,-25
0:08.980,-22
0:08.982,-19
0:08.984,-18
0:08.986,-19
0:08.988,-21
0:08.990,-22
0:08.992,-20
0:08.994,-24
0:08.996,-26
0:08.998,-25
0:09.000,-21
0:09.002,-21
0:09.004,-19
0:09.006,-21
0:09.008,-22
0:09.010,-20
0:09.012,-26
0:09.014,-27
0:09.016,-25
0:09.018,-22
0:09.020,-22
0:09.022,-19
0:09.024,-18
0:09.026,-16
0:09.028,-17
0:09.030,-19
0:09.032,-24
0:09.034,-24
0:09.036,-26
0:09.038,-23
0:09.040,-24
0:09.042,-20
0:09.044,-18
0:09.046,-19
0:09.048,-22
0:09.050,-24
0:09.052,-24
0:09.054,-24
0:09.056,-24
0:09.058,-22
0:09.060,-22
0:09.062,-20
0:09.064,-20
0:09.066,-22
0:09.068,-24
0:09.070,-25
0:09.072,-24
0:09.074,-26
0:09.076,-27
0:09.078,-25
0:09.080,-23
0:09.082,-21
0:09.084,-19
0:09.086,-25
0:09.088,-26
0:09.090,-27
0:09.092,-27
0:09.094,-29
0:09.096,-25
0:09.098,-23
0:09.100,-26
0:09.102,-23
0:09.104,-23
0:09.106,-22
0:09.108,-25
0:09.110,-25
0:09.112,-27
0:09.114,-26
0:09.116,-25
0:09.118,-25
0:09.120,-26
0:09.122,-25
0:09.124,-24
0:09.126,-28
0:09.128,-28
0:09.130,-28
0:09.132,-29
0:09.134,-32
0:09.136,-28
0:09.138,-26
0:09.140,-24
0:09.142,-23
0:09.144,-22
0:09.146,-26
0:09.148,-28
0:09.150,-28
0:09.152,-30
0:09.154,-31
0:09.156,-27
0:09.158,-25
0:09.160,-22
0:09.162,-20
0:09.164,-20
0:09.166,-26
0:09.168,-25
0:09.170,-28
0:09.172,-30
0:09.174,-30
0:09.176,-26
0:09.178,-24
0:09.180,-26
0:09.182,-21
0:09.184,-25
0:09.186,-28
0:09.188,-29
0:09.190,-27
0:09.192,-28
0:09.194,-32
0:09.196,-25
0:09.198,-26
0:09.200,-28
0:09.202,-27
0:09.204,-28
0:09.206,-30
0:09.208,-27
0:09.210,-29
0:09.212,-30
0:09.214,-30
0:09.216,-26
0:09.218,-24
0:09.220,-22
0:09.222,-20
0:09.224,-22
0:09.226,-21
0:09.228,-22
0:09.230,-21
0:09.232,-23
0:09.234,-22
0:09.236,-24
0:09.238,-20
0:09.240,-22
0:09.242,-17
0:09.244,-21
0:09.246,-20
0:09.248,-20
0:09.250,-19
0:09.252,-17
0:09.254,-17
0:09.256,-16
0:09.258,-12
0:09.260,-12
0:09.262,-9
0:09.264,-12
0:09.266,-14
0:09.268,-12
0:09.270,-14
0:09.272,-14
0:09.274,-13
0:09.276,-15
0:09.278,-17
0:09.280,-14
0:09.282,-18
0:09.284,-20
0:09.286,-20
0:09.288,-23
0:09.290,-25
0:09.292,-28
0:09.294,-26
0:09.296,-25
0:09.298,-25
0:09.300,-27
0:09.302,-25
0:09.304,-28
0:09.306,-26
0:09.308,-26
0:09.310,-29
0:09.312,-30
0:09.314,-27
0:09.316,-28
0:09.318,-28
0:09.320,-23
0:09.322,-26
0:09.324,-29
0:09.326,-30
0:09.328,-29
0:09.330,-32
0:09.332,-33
0:09.334,-29
0:09.336,-27
0:09.338,-26
0:09.340,-26
0:09.342,-28
0:09.344,-28
0:09.346,-30
0:09.348,-33
0:09.350,-32
0:09.352,-37
0:09.354,-30
0:09.356,-27
0:09.358,-26
0:09.360,-29
0:09.362,-27
0:09.364,-27
0:09.366,-32
0:09.368,-32
0:09.370,-34
0:09.372,-37
0:09.374,-34
0:09.376,-35
0:09.378,-33
0:09.380,-34
0:09.382,-33
0:09.384,-36
0:09.386,-39
0:09.388,-42
0:09.390,-38
0:09.392,-33
0:09.394,-22
0:09.396,-10
0:09.398,0
0:09.400,11
0:09.402,25
0:09.404,37
0:09.406,56
0:09.408,75
0:09.410,99
0:09.412,117
0:09.414,116
0:09.416,111
0:09.418,98
0:09.420,86
0:09.422,65
0:09.424,47
0:09.426,21
0:09.428,-2
0:09.430,-24
0:09.432,-48
0:09.434,-55
0:09.436,-52
0:09.438,-44
0:09.440,-39
0:09.442,-37
0:09.444,-30
0:09.446,-27
0:09.448,-32
0:09.450,-29
0:09.452,-28
0:09.454,-25
0:09.456,-23
0:09.458,-23
0:09.460,-22
0:09.462,-22
0:09.464,-27
0:09.466,-26
0:09.468,-28
0:09.470,-29
0:09.472,-30
0:09.474,-24
0:09.476,-24
0:09.478,-23
0:09.480,-21
0:09.482,-18
0:09.484,-23
0:09.486,-25
0:09.488,-25
0:09.490,-26
0:09.492,-25
0:09.494,-24
0:09.496,-19
0:09.498,-20
0:09.500,-20
0:09.502,-20
0:09.504,-22
0:09.506,-24
0:09.508,-24
0:09.510,-25
0:09.512,-20
0:09.514,-22
0:09.516,-18
0:09.518,-16
0:09.520,-16
0:09.522,-15
0:09.524,-16
0:09.526,-17
0:09.528,-20
0:09.530,-19
0:09.532,-20
0:09.534,-15
0:09.536,-15
0:09.538,-14
0:09.540,-13
0:09.542,-13
0:09.544,-16
0:09.546,-18
0:09.548,-19
0:09.550,-19
0:09.552,-15
0:09.554,-14
0:09.556,-12
0:09.558,-8
0:09.560,-7
0:09.562,-9
0:09.564,-13
0:09.566,-13
0:09.568,-11
0:09.570,-10
0:09.572,-9
0:09.574,-8
0:09.576,-5
0:09.578,1
0:09.580,1
0:09.582,3
0:09.584,1
0:09.586,-2
0:09.588,-2
0:09.590,-4
0:09.592,-1
0:09.594,1
0:09.596,6
0:09.598,5
0:09.600,8
0:09.602,13
0:09.604,12
0:09.606,11
0:09.608,11
0:09.610,9
0:09.612,12
0:09.614,14
0:09.616,15
0:09.618,19
0:09.620,24
0:09.622,23
0:09.624,25
0:09.626,24
0:09.628,24
0:09.630,23
0:09.632,22
0:09.634,25
0:09.636,30
0:09.638,28
0:09.640,29
0:09.642,29
0:09.644,26
0:09.646,22
0:09.648,19
0:09.650,19
0:09.652,19
0:09.654,24
0:09.656,24
0:09.658,25
0:09.660,25
0:09.662,21
0:09.664,19
0:09.666,14
0:09.668,12
0:09.670,9
0:09.672,8
0:09.674,8
0:09.676,8
0:09.678,3
0:09.680,4
0:09.682,3
0:09.684,-5
0:09.686,-11
0:09.688,-9
0:09.690,-10
0:09.692,-13
0:09.694,-13
0:09.696,-9
0:09.698,-11
0:09.700,-11
0:09.702,-14
0:09.704,-17
0:09.706,-21
0:09.708,-22
0:09.710,-22
0:09.712,-23
0:09.714,-22
0:09.716,-21
0:09.718,-22
0:09.720,-21
0:09.722,-20
0:09.724,-19
0:09.726,-26
0:09.728,-27
0:09.730,-28
0:09.732,-23
0:09.734,-25
0:09.736,-25
0:09.738,-19
0:09.740,-20
0:09.742,-25
0:09.744,-28
0:09.746,-27
0:09.748,-28
0:09.750,-29
0:09.752,-25
0:09.754,-23
0:09.756,-22
0:09.758,-24
0:09.760,-22
0:09.762,-25
0:09.764,-25
0:09.766,-25
0:09.768,-25
0:09.770,-27
0:09.772,-23
0:09.774,-24
0:09.776,-22
0:09.778,-20
0:09.780,-17
0:09.782,-21
0:09.784,-22
0:09.786,-25
0:09.788,-25
0:09.790,-25
0:09.792,-24
0:09.794,-19
0:09.796,-19
0:09.798,-18
0:09.800,-20
0:09.802,-21
0:09.804,-23
0:09.806,-23
0:09.808,-25
0:09.810,-26
0:09.812,-21
0:09.814,-20
0:09.816,-16
0:09.818,-18
0:09.820,-15
0:09.822,-20
0:09.824,-25
0:09.826,-24
0:09.828,-25
0:09.830,-26
0:09.832,-18
0:09.834,-19
0:09.836,-16
0:09.838,-14
0:09.840,-16
0:09.842,-18
0:09.844,-22
0:09.846,-23
0:09.848,-24
0:09.850,-22
0:09.852,-20
0:09.854,-20
0:09.856,-18
0:09.858,-16
0:09.860,-19
0:09.862,-21
0:09.864,-21
0:09.866,-25
0:09.868,-23
0:09.870,-22
0:09.872,-21
0:09.874,-20
0:09.876,-18
0:09.878,-19
0:09.880,-20
0:09.882,-23
0:09.884,-22
0:09.886,-21
0:09.888,-16
0:09.890,-15
0:09.892,-11
0:09.894,-9
0:09.896,-5
0:09.898,0
0:09.900,0
0:09.902,-1
0:09.904,-5
0:09.906,-2
0:09.908,-3
0:09.910,-5
0:09.912,1
0:09.914,3
0:09.916,4
0:09.918,7
0:09.920,7
0:09.922,3
0:09.924,1
0:09.926,-2
0:09.928,-2
0:09.930,3
0:09.932,6
0:09.934,7
0:09.936,7
0:09.938,8
0:09.940,4
0:09.942,2
0:09.944,1
0:09.946,1
0:09.948,2
0:09.950,2
0:09.952,5
0:09.954,6
0:09.956,9
0:09.958,11
0:09.960,10
0:09.962,6
0:09.964,2
0:09.966,2
0:09.968,1
0:09.970,1
0:09.972,5
0:09.974,8
0:09.976,10
0:09.978,7
0:09.980,5
0:09.982,4
0:09.984,2
0:09.986,3
0:09.988,3
0:09.990,3
0:09.992,6
0:09.994,4
0:09.996,7
0:09.998,8
0:10.000,5
0:10.002,4
0:10.004,4
0:10.006,0
0:10.008,1
0:10.010,1
0:10.012,6
0:10.014,6
0:10.016,6
0:10.018,7
0:10.020,3
0:10.022,-2
0:10.024,-3
0:10.026,-1
0:10.028,-1
0:10.030,2
0:10.032,3
0:10.034,7
0:10.036,7
0:10.038,8
0:10.040,5
0:10.042,3
0:10.044,2
0:10.046,2
0:10.048,4
0:10.050,6
0:10.052,8
0:10.054,9
0:10.056,11
0:10.058,10
0:10.060,9
0:10.062,6
0:10.064,4
0:10.066,5
0:10.068,8
0:10.070,10
0:10.072,15
0:10.074,18
0:10.076,20
0:10.078,19
0:10.080,16
0:10.082,15
0:10.084,9
0:10.086,8
0:10.088,8
0:10.090,11
0:10.092,14
0:10.094,14
0:10.096,16
0:10.098,15
0:10.100,10
0:10.102,5
0:10.104,2
0:10.106,-1
0:10.108,0
0:10.110,1
0:10.112,0
0:10.114,1
0:10.116,2
0:10.118,2
0:10.120,-4
0:10.122,-6
0:10.124,-8
0:10.126,-10
0:10.128,-10
0:10.130,-8
0:10.132,-10
0:10.134,-7
0:10.136,-7
0:10.138,-8
0:10.140,-9
0:10.142,-10
0:10.144,-12
0:10.146,-15
0:10.148,-15
0:10.150,-15
0:10.152,-13
0:10.154,-12
0:10.156,-10
0:10.158,-12
0:10.160,-13
0:10.162,-17
0:10.164,-17
0:10.166,-19
0:10.168,-18
0:10.170,-14
0:10.172,-15
0:10.174,-15
0:10.176,-14
0:10.178,-12
0:10.180,-14
0:10.182,-15
0:10.184,-18
0:10.186,-20
0:10.188,-17
0:10.190,-16
0:10.192,-17
0:10.194,-15
0:10.196,-15
0:10.198,-19
0:10.200,-24
0:10.202,-25
0:10.204,-29
0:10.206,-34
0:10.208,-31
0:10.210,-29
0:10.212,-23
0:10.214,-14
0:10.216,-1
0:10.218,12
0:10.220,16
0:10.222,27
0:10.224,43
0:10.226,57
0:10.228,82
0:10.230,110
0:10.232,130
0:10.234,137
0:10.236,135
0:10.238,123
0:10.240,107
0:10.242,88
0:10.244,66
0:10.246,46
0:10.248,21
0:10.250,-2
0:10.252,-26
0:10.254,-41
0:10.256,-45
0:10.258,-42
0:10.260,-39
0:10.262,-38
0:10.264,-33
0:10.266,-30
0:10.268,-24
0:10.270,-19
0:10.272,-16
0:10.274,-16
0:10.276,-15
0:10.278,-15
0:10.280,-21
0:10.282,-22
0:10.284,-23
0:10.286,-24
0:10.288,-20
0:10.290,-17
0:10.292,-17
0:10.294,-16
0:10.296,-17
0:10.298,-20
0:10.300,-21
0:10.302,-23
0:10.304,-23
0:10.306,-23
0:10.308,-21
0:10.310,-20
0:10.312,-19
0:10.314,-17
0:10.316,-15
0:10.318,-17
0:10.320,-20
0:10.322,-18
0:10.324,-21
0:10.326,-20
0:10.328,-18
0:10.330,-15
0:10.332,-13
0:10.334,-12
0:10.336,-13
0:10.338,-15
0:10.340,-18
0:10.342,-19
0:10.344,-19
0:10.346,-19
0:10.348,-16
0:10.350,-15
0:10.352,-15
0:10.354,-11
0:10.356,-11
0:10.358,-13
0:10.360,-15
0:10.362,-16
0:10.364,-17
0:10.366,-17
0:10.368,-11
0:10.370,-8
0:10.372,-10
0:10.374,-11
0:10.376,-10
0:10.378,-11
0:10.380,-13
0:10.382,-13
0:10.384,-12
0:10.386,-12
0:10.388,-7
0:10.390,-5
0:10.392,-6
0:10.394,-7
0:10.396,-8
0:10.398,-7
0:10.400,-5
0:10.402,-7
0:10.404,-8
0:10.406,-6
0:10.408,-5
0:10.410,-1
0:10.412,1
0:10.414,5
0:10.416,6
0:10.418,2
0:10.420,2
0:10.422,2
0:10.424,3
0:10.426,4
0:10.428,9
0:10.430,12
0:10.432,13
0:10.434,16
0:10.436,16
0:10.438,16
0:10.440,12
0:10.442,14
0:10.444,16
0:10.446,17
0:10.448,18
0:10.450,22
0:10.452,24
0:10.454,24
0:10.456,24
0:10.458,23
0:10.460,22
0:10.462,21
0:10.464,17
0:10.466,17
0:10.468,18
0:10.470,19
0:10.472,22
0:10.474,20
0:10.476,20
0:10.478,15
0:10.480,11
0:10.482,7
0:10.484,6
0:10.486,6
0:10.488,5
0:10.490,6
0:10.492,8
0:10.494,5
0:10.496,3
0:10.498,-4
0:10.500,-5
0:10.502,-10
0:10.504,-13
0:10.506,-13
0:10.508,-10
0:10.510,-8
0:10.512,-8
0:10.514,-9
0:10.516,-13
0:10.518,-18
0:10.520,-24
0:10.522,-22
0:10.524,-26
0:10.526,-27
0:10.528,-28
0:10.530,-28
0:10.532,-26
0:10.534,-22
0:10.536,-25
0:10.538,-28
0:10.540,-30
0:10.542,-30
0:10.544,-33
0:10.546,-30
0:10.548,-29
0:10.550,-29
0:10.552,-27
0:10.554,-25
0:10.556,-28
0:10.558,-31
0:10.560,-32
0:10.562,-34
0:10.564,-32
0:10.566,-33
0:10.568,-31
0:10.570,-29
0:10.572,-30
0:10.574,-24
0:10.576,-27
0:10.578,-26
0:10.580,-29
0:10.582,-32
0:10.584,-34
0:10.586,-31
0:10.588,-29
0:10.590,-27
0:10.592,-26
0:10.594,-23
0:10.596,-27
0:10.598,-30
0:10.600,-31
0:10.602,-32
0:10.604,-33
0:10.606,-29
0:10.608,-25
0:10.610,-23
0:10.612,-21
0:10.614,-20
0:10.616,-22
0:10.618,-25
0:10.620,-27
0:10.622,-33
0:10.624,-33
0:10.626,-30
0:10.628,-28
0:10.630,-29
0:10.632,-28
0:10.634,-27
0:10.636,-25
0:10.638,-29
0:10.640,-31
0:10.642,-30
0:10.644,-30
0:10.646,-28
0:10.648,-26
0:10.650,-25
0:10.652,-24
0:10.654,-23
0:10.656,-28
0:10.658,-27
0:10.660,-26
0:10.662,-31
0:10.664,-32
0:10.666,-31
0:10.668,-30
0:10.670,-29
0:10.672,-28
0:10.674,-26
0:10.676,-29
0:10.678,-29
0:10.680,-31
0:10.682,-32
0:10.684,-32
0:10.686,-30
0:10.688,-27
0:10.690,-26
0:10.692,-27
0:10.694,-29
0:10.696,-32
0:10.698,-33
0:10.700,-32
0:10.702,-34
0:10.704,-34
0:10.706,-31
0:10.708,-28
0:10.710,-26
0:10.712,-28
0:10.714,-30
0:10.716,-31
0:10.718,-32
0:10.720,-33
0:10.722,-36
0:10.724,-37
0:10.726,-33
0:10.728,-32
0:10.730,-31
0:10.732,-28
0:10.734,-29
0:10.736,-31
0:10.738,-34
0:10.740,-33
0:10.742,-36
0:10.744,-32
0:10.746,-31
0:10.748,-28
0:10.750,-29
0:10.752,-27
0:10.754,-32
0:10.756,-34
0:10.758,-38
0:10.760,-43
0:10.762,-42
0:10.764,-40
0:10.766,-34
0:10.768,-30
0:10.770,-28
0:10.772,-30
0:10.774,-31
0:10.776,-31
0:10.778,-36
0:10.780,-37
0:10.782,-38
0:10.784,-38
0:10.786,-35
0:10.788,-31
0:10.790,-30
0:10.792,-29
0:10.794,-30
0:10.796,-32
0:10.798,-33
0:10.800,-34
0:10.802,-32
0:10.804,-32
0:10.806,-30
0:10.808,-29
0:10.810,-27
0:10.812,-25
0:10.814,-28
0:10.816,-29
0:10.818,-30
0:10.820,-32
0:10.822,-34
0:10.824,-30
0:10.826,-27
0:10.828,-21
0:10.830,-20
0:10.832,-19
0:10.834,-18
0:10.836,-21
0:10.838,-25
0:10.840,-25
0:10.842,-25
0:10.844,-21
0:10.846,-18
0:10.848,-17
0:10.850,-22
0:10.852,-20
0:10.854,-23
0:10.856,-24
0:10.858,-27
0:10.860,-29
0:10.862,-31
0:10.864,-28
0:10.866,-28
0:10.868,-29
0:10.870,-31
0:10.872,-32
0:10.874,-35
0:10.876,-34
0:10.878,-36
0:10.880,-35
0:10.882,-35
0:10.884,-34
0:10.886,-34
0:10.888,-30
0:10.890,-31
0:10.892,-31
0:10.894,-32
0:10.896,-35
0:10.898,-36
0:10.900,-39
0:10.902,-39
0:10.904,-37
0:10.906,-36
0:10.908,-35
0:10.910,-33
0:10.912,-36
0:10.914,-39
0:10.916,-41
0:10.918,-40
0:10.920,-39
0:10.922,-41
0:10.924,-36
0:10.926,-34
0:10.928,-34
0:10.930,-33
0:10.932,-31
0:10.934,-36
0:10.936,-38
0:10.938,-42
0:10.940,-42
0:10.942,-42
0:10.944,-43
0:10.946,-37
0:10.948,-37
0:10.950,-34
0:10.952,-32
0:10.954,-32
0:10.956,-40
0:10.958,-47
0:10.960,-46
0:10.962,-49
0:10.964,-48
0:10.966,-49
0:10.968,-47
0:10.970,-41
0:10.972,-35
0:10.974,-32
0:10.976,-18
0:10.978,-6
0:10.980,1
0:10.982,16
0:10.984,39
0:10.986,61
0:10.988,87
0:10.990,103
0:10.992,104
0:10.994,101
0:10.996,88
0:10.998,77
0:11.000,62
0:11.002,43
0:11.004,25
0:11.006,7
0:11.008,-17
0:11.010,-36
0:11.012,-51
0:11.014,-60
0:11.016,-57
0:11.018,-57
0:11.020,-56
0:11.022,-53
0:11.024,-45
0:11.026,-40
0:11.028,-33
0:11.030,-30
0:11.032,-31
0:11.034,-31
0:11.036,-34
0:11.038,-37
0:11.040,-39
0:11.042,-35
0:11.044,-31
0:11.046,-31
0:11.048,-30
0:11.050,-31
0:11.052,-31
0:11.054,-34
0:11.056,-30
0:11.058,-29
0:11.060,-31
0:11.062,-31
0:11.064,-30
0:11.066,-28
0:11.068,-25
0:11.070,-21
0:11.072,-26
0:11.074,-30
0:11.076,-27
0:11.078,-30
0:11.080,-32
0:11.082,-30
0:11.084,-29
0:11.086,-25
0:11.088,-23
0:11.090,-21
0:11.092,-22
0:11.094,-22
0:11.096,-24
0:11.098,-27
0:11.100,-25
0:11.102,-23
0:11.104,-21
0:11.106,-22
0:11.108,-23
0:11.110,-22
0:11.112,-23
0:11.114,-26
0:11.116,-24
0:11.118,-24
0:11.120,-28
0:11.122,-28
0:11.124,-24
0:11.126,-21
0:11.128,-17
0:11.130,-17
0:11.132,-16
0:11.134,-17
0:11.136,-18
0:11.138,-20
0:11.140,-18
0:11.142,-19
0:11.144,-16
0:11.146,-13
0:11.148,-12
0:11.150,-7
0:11.152,-9
0:11.154,-12
0:11.156,-11
0:11.158,-10
0:11.160,-10
0:11.162,-8
0:11.164,-6
0:11.166,-4
0:11.168,-2
0:11.170,1
0:11.172,2
0:11.174,-4
0:11.176,-5
0:11.178,-3
0:11.180,-1
0:11.182,2
0:11.184,6
0:11.186,9
0:11.188,10
0:11.190,11
0:11.192,12
0:11.194,11
0:11.196,11
0:11.198,11
0:11.200,11
0:11.202,14
0:11.204,17
0:11.206,19
0:11.208,20
0:11.210,23
0:11.212,22
0:11.214,19
0:11.216,19
0:11.218,15
0:11.220,13
0:11.222,15
0:11.224,24
0:11.226,17
0:11.228,19
0:11.230,22
0:11.232,19
0:11.234,15
0:11.236,11
0:11.238,8
0:11.240,7
0:11.242,4
0:11.244,7
0:11.246,7
0:11.248,5
0:11.250,7
0:11.252,0
0:11.254,-6
0:11.256,-6
0:11.258,-7
0:11.260,-10
0:11.262,-14
0:11.264,-14
0:11.266,-14
0:11.268,-12
0:11.270,-15
0:11.272,-20
0:11.274,-22
0:11.276,-25
0:11.278,-29
0:11.280,-31
0:11.282,-31
0:11.284,-27
0:11.286,-27
0:11.288,-26
0:11.290,-23
0:11.292,-29
0:11.294,-29
0:11.296,-29
0:11.298,-33
0:11.300,-32
0:11.302,-30
0:11.304,-31
0:11.306,-28
0:11.308,-30
0:11.310,-30
0:11.312,-35
0:11.314,-34
0:11.316,-34
0:11.318,-34
0:11.320,-33
0:11.322,-33
0:11.324,-31
0:11.326,-31
0:11.328,-29
0:11.330,-29
0:11.332,-34
0:11.334,-32
0:11.336,-33
0:11.338,-33
0:11.340,-31
0:11.342,-30
0:11.344,-30
0:11.346,-27
0:11.348,-27
0:11.350,-27
0:11.352,-31
0:11.354,-34
0:11.356,-34
0:11.358,-31
0:11.360,-30
0:11.362,-30
0:11.364,-29
0:11.366,-28
0:11.368,-27
0:11.370,-30
0:11.372,-31
0:11.374,-33
0:11.376,-32
0:11.378,-33
0:11.380,-31
0:11.382,-30
0:11.384,-28
0:11.386,-26
0:11.388,-24
0:11.390,-27
0:11.392,-30
0:11.394,-31
0:11.396,-32
0:11.398,-32
0:11.400,-29
0:11.402,-29
0:11.404,-27
0:11.406,-27
0:11.408,-24
0:11.410,-27
0:11.412,-29
0:11.414,-28
0:11.416,-29
0:11.418,-32
0:11.420,-30
0:11.422,-29
0:11.424,-27
0:11.426,-27
0:11.428,-25
0:11.430,-28
0:11.432,-31
0:11.434,-30
0:11.436,-31
0:11.438,-33
0:11.440,-30
0:11.442,-30
0:11.444,-28
0:11.446,-28
0:11.448,-27
0:11.450,-28
0:11.452,-31
0:11.454,-33
0:11.456,-32
0:11.458,-36
0:11.460,-34
0:11.462,-32
0:11.464,-33
0:11.466,-26
0:11.468,-28
0:11.470,-29
0:11.472,-31
0:11.474,-31
0:11.476,-33
0:11.478,-34
0:11.480,-31
0:11.482,-29
0:11.484,-26
0:11.486,-26
0:11.488,-25
0:11.490,-29
0:11.492,-29
0:11.494,-28
0:11.496,-31
0:11.498,-32
0:11.500,-31
0:11.502,-31
0:11.504,-31
0:11.506,-27
0:11.508,-26
0:11.510,-29
0:11.512,-32
0:11.514,-33
0:11.516,-37
0:11.518,-37
0:11.520,-31
0:11.522,-31
0:11.524,-30
0:11.526,-27
0:11.528,-27
0:11.530,-27
0:11.532,-27
0:11.534,-28
0:11.536,-31
0:11.538,-30
0:11.540,-28
0:11.542,-25
0:11.544,-24
0:11.546,-24
0:11.548,-25
0:11.550,-29
0:11.552,-27
0:11.554,-30
0:11.556,-28
0:11.558,-31
0:11.560,-26
0:11.562,-25
0:11.564,-22
0:11.566,-19
0:11.568,-17
0:11.570,-20
0:11.572,-20
0:11.574,-21
0:11.576,-20
0:11.578,-21
0:11.580,-19
0:11.582,-16
0:11.584,-14
0:11.586,-14
0:11.588,-16
0:11.590,-18
0:11.592,-23
0:11.594,-27
0:11.596,-29
0:11.598,-31
0:11.600,-27
0:11.602,-26
0:11.604,-30
0:11.606,-28
0:11.608,-30
0:11.610,-31
0:11.612,-33
0:11.614,-34
0:11.616,-35
0:11.618,-35
0:11.620,-31
0:11.622,-30
0:11.624,-29
0:11.626,-31
0:11.628,-29
0:11.630,-33
0:11.632,-36
0:11.634,-34
0:11.636,-36
0:11.638,-35
0:11.640,-32
0:11.642,-32
0:11.644,-32
0:11.646,-31
0:11.648,-30
0:11.650,-32
0:11.652,-32
0:11.654,-28
0:11.656,-26
0:11.658,-22
0:11.660,-17
0:11.662,-15
0:11.664,-13
0:11.666,-11
0:11.668,-12
0:11.670,-13
0:11.672,-13
0:11.674,-14
0:11.676,-14
0:11.678,-10
0:11.680,-8
0:11.682,-6
0:11.684,-5
0:11.686,-5
0:11.688,-8
0:11.690,-9
0:11.692,-12
0:11.694,-15
0:11.696,-18
0:11.698,-14
0:11.700,-14
0:11.702,-14
0:11.704,-14
0:11.706,-8
0:11.708,1
0:11.710,6
0:11.712,14
0:11.714,22
0:11.716,30
0:11.718,40
0:11.720,55
0:11.722,74
0:11.724,97
0:11.726,116
0:11.728,122
0:11.730,114
0:11.732,101
0:11.734,88
0:11.736,76
0:11.738,68
0:11.740,57
0:11.742,40
0:11.744,15
0:11.746,-4
0:11.748,-22
0:11.750,-31
0:11.752,-30
0:11.754,-25
0:11.756,-22
0:11.758,-18
0:11.760,-10
0:11.762,-4
0:11.764,1
0:11.766,5
0:11.768,4
0:11.770,0
0:11.772,-2
0:11.774,-4
0:11.776,-2
0:11.778,0
0:11.780,0
0:11.782,0
0:11.784,0
0:11.786,-1
0:11.788,-2
0:11.790,-3
0:11.792,-1
0:11.794,-3
0:11.796,-1
0:11.798,1
0:11.800,1
0:11.802,4
0:11.804,6
0:11.806,8
0:11.808,3
0:11.810,-1
0:11.812,-3
0:11.814,-4
0:11.816,-3
0:11.818,0
0:11.820,4
0:11.822,4
0:11.824,7
0:11.826,7
0:11.828,4
0:11.830,2
0:11.832,1
0:11.834,0
0:11.836,0
0:11.838,5
0:11.840,8
0:11.842,5
0:11.844,8
0:11.846,11
0:11.848,6
0:11.850,4
0:11.852,5
0:11.854,3
0:11.856,2
0:11.858,2
0:11.860,5
0:11.862,6
0:11.864,8
0:11.866,9
0:11.868,8
0:11.870,6
0:11.872,4
0:11.874,5
0:11.876,5
0:11.878,7
0:11.880,11
0:11.882,13
0:11.884,14
0:11.886,13
0:11.888,11
0:11.890,8
0:11.892,9
0:11.894,10
0:11.896,9
0:11.898,12
0:11.900,13
0:11.902,14
0:11.904,17
0:11.906,18
0:11.908,16
0:11.910,14
0:11.912,14
0:11.914,15
0:11.916,17
0:11.918,20
0:11.920,23
0:11.922,24
0:11.924,26
0:11.926,29
0:11.928,26
0:11.930,23
0:11.932,23
0:11.934,22
0:11.936,22
0:11.938,26
0:11.940,28
0:11.942,32
0:11.944,34
0:11.946,34
0:11.948,30
0:11.950,25
0:11.952,26
0:11.954,25
0:11.956,28
0:11.958,29
0:11.960,29
0:11.962,27
0:11.964,28
0:11.966,26
0:11.968,22
0:11.970,20
0:11.972,16
0:11.974,11
0:11.976,14
0:11.978,17
0:11.980,16
0:11.982,12
0:11.984,15
0:11.986,12
0:11.988,10
0:11.990,8
0:11.992,3
0:11.994,-1
0:11.996,1
0:11.998,-2
0:12.000,-1
0:12.002,-3
0:12.004,-3
0:12.006,-6
0:12.008,-9
0:12.010,-8
0:12.012,-12
0:12.014,-14
0:12.016,-16
0:12.018,-15
0:12.020,-14
0:12.022,-13
0:12.024,-14
0:12.026,-14
0:12.028,-14
0:12.030,-17
0:12.032,-18
0:12.034,-21
0:12.036,-20
0:12.038,-21
0:12.040,-19
0:12.042,-15
0:12.044,-17
0:12.046,-20
0:12.048,-23
0:12.050,-24
0:12.052,-23
0:12.054,-26
0:12.056,-23
0:12.058,-21
0:12.060,-21
0:12.062,-19
0:12.064,-18
0:12.066,-22
0:12.068,-29
0:12.070,-25
0:12.072,-26
0:12.074,-27
0:12.076,-25
0:12.078,-24
0:12.080,-20
0:12.082,-16
0:12.084,-18
0:12.086,-22
0:12.088,-28
0:12.090,-26
0:12.092,-24
0:12.094,-27
0:12.096,-26
0:12.098,-23
0:12.100,-24
0:12.102,-23
0:12.104,-21
0:12.106,-25
0:12.108,-24
0:12.110,-23
0:12.112,-25
0:12.114,-29
0:12.116,-26
0:12.118,-24
0:12.120,-23
0:12.122,-19
0:12.124,-20
0:12.126,-23
0:12.128,-25
0:12.130,-26
0:12.132,-26
0:12.134,-27
0:12.136,-22
0:12.138,-20
0:12.140,-23
0:12.142,-22
0:12.144,-22
0:12.146,-24
0:12.148,-26
0:12.150,-26
0:12.152,-26
0:12.154,-30
0:12.156,-29
0:12.158,-20
0:12.160,-20
0:12.162,-19
0:12.164,-22
0:12.166,-26
0:12.168,-28
0:12.170,-30
0:12.172,-28
0:12.174,-30
0:12.176,-28
0:12.178,-27
0:12.180,-24
0:12.182,-23
0:12.184,-23
0:12.186,-23
0:12.188,-27
0:12.190,-30
0:12.192,-30
0:12.194,-33
0:12.196,-30
0:12.198,-29
0:12.200,-25
0:12.202,-25
0:12.204,-27
0:12.206,-31
0:12.208,-32
0:12.210,-32
0:12.212,-31
0:12.214,-32
0:12.216,-28
0:12.218,-26
0:12.220,-27
0:12.222,-24
0:12.224,-27
0:12.226,-31
0:12.228,-28
0:12.230,-29
0:12.232,-33
0:12.234,-32
0:12.236,-30
0:12.238,-28
0:12.240,-25
0:12.242,-28
0:12.244,-26
0:12.246,-30
0:12.248,-28
0:12.250,-28
0:12.252,-30
0:12.254,-28
0:12.256,-25
0:12.258,-24
0:12.260,-21
0:12.262,-19
0:12.264,-19
0:12.266,-24
0:12.268,-27
0:12.270,-27
0:12.272,-29
0:12.274,-29
0:12.276,-25
0:12.278,-22
0:12.280,-23
0:12.282,-18
0:12.284,-14
0:12.286,-19
0:12.288,-18
0:12.290,-19
0:12.292,-22
0:12.294,-19
0:12.296,-19
0:12.298,-17
0:12.300,-17
0:12.302,-14
0:12.304,-13
0:12.306,-19
0:12.308,-21
0:12.310,-24
0:12.312,-25
0:12.314,-22
0:12.316,-23
0:12.318,-22
0:12.320,-23
0:12.322,-27
0:12.324,-28
0:12.326,-30
0:12.328,-31
0:12.330,-34
0:12.332,-33
0:12.334,-29
0:12.336,-27
0:12.338,-29
0:12.340,-28
0:12.342,-26
0:12.344,-30
0:12.346,-34
0:12.348,-36
0:12.350,-39
0:12.352,-41
0:12.354,-37
0:12.356,-34
0:12.358,-30
0:12.360,-29
0:12.362,-32
0:12.364,-33
0:12.366,-34
0:12.368,-35
0:12.370,-38
0:12.372,-39
0:12.374,-37
0:12.376,-37
0:12.378,-34
0:12.380,-34
0:12.382,-33
0:12.384,-33
0:12.386,-36
0:12.388,-39
0:12.390,-38
0:12.392,-39
0:12.394,-37
0:12.396,-35
0:12.398,-34
0:12.400,-33
0:12.402,-33
0:12.404,-35
0:12.406,-36
0:12.408,-38
0:12.410,-40
0:12.412,-42
0:12.414,-38
0:12.416,-42
0:12.418,-43
0:12.420,-39
0:12.422,-41
0:12.424,-41
0:12.426,-36
0:12.428,-30
0:12.430,-22
0:12.432,-10
0:12.434,1
0:12.436,9
0:12.438,20
0:12.440,35
0:12.442,55
0:12.444,70
0:12.446,87
0:12.448,84
0:12.450,76
0:12.452,63
0:12.454,51
0:12.456,41
0:12.458,30
0:12.460,14
0:12.462,-4
0:12.464,-26
0:12.466,-46
0:12.468,-63
0:12.470,-66
0:12.472,-59
0:12.474,-52
0:12.476,-44
0:12.478,-38
0:12.480,-33
0:12.482,-34
0:12.484,-34
0:12.486,-34
0:12.488,-35
0:12.490,-35
0:12.492,-36
0:12.494,-31
0:12.496,-28
0:12.498,-27
0:12.500,-28
0:12.502,-32
0:12.504,-30
0:12.506,-32
0:12.508,-33
0:12.510,-34
0:12.512,-33
0:12.514,-30
0:12.516,-29
0:12.518,-27
0:12.520,-25
0:12.522,-26
0:12.524,-27
0:12.526,-31
0:12.528,-32
0:12.530,-33
0:12.532,-30
0:12.534,-28
0:12.536,-26
0:12.538,-25
0:12.540,-22
0:12.542,-22
0:12.544,-23
0:12.546,-28
0:12.548,-29
0:12.550,-28
0:12.552,-27
0:12.554,-25
0:12.556,-24
0:12.558,-24
0:12.560,-21
0:12.562,-22
0:12.564,-24
0:12.566,-24
0:12.568,-25
0:12.570,-24
0:12.572,-24
0:12.574,-23
0:12.576,-21
0:12.578,-18
0:12.580,-17
0:12.582,-19
0:12.584,-20
0:12.586,-19
0:12.588,-20
0:12.590,-21
0:12.592,-15
0:12.594,-16
0:12.596,-13
0:12.598,-13
0:12.600,-10
0:12.602,-13
0:12.604,-13
0:12.606,-14
0:12.608,-11
0:12.610,-15
0:12.612,-13
0:12.614,-11
0:12.616,-9
0:12.618,-8
0:12.620,-5
0:12.622,-5
0:12.624,-5
0:12.626,-5
0:12.628,-6
0:12.630,-5
0:12.632,-3
0:12.634,1
0:12.636,1
0:12.638,3
0:12.640,3
0:12.642,5
0:12.644,3
0:12.646,4
0:12.648,6
0:12.650,2
0:12.652,7
0:12.654,9
0:12.656,12
0:12.658,14
0:12.660,16
0:12.662,14
0:12.664,14
0:12.666,14
0:12.668,13
0:12.670,7
0:12.672,12
0:12.674,13
0:12.676,15
0:12.678,12
0:12.680,18
0:12.682,14
0:12.684,10
0:12.686,9
0:12.688,8
0:12.690,8
0:12.692,8
0:12.694,10
0:12.696,6
0:12.698,6
0:12.700,5
0:12.702,1
0:12.704,-5
0:12.706,-7
0:12.708,-9
0:12.710,-12
0:12.712,-13
0:12.714,-12
0:12.716,-14
0:12.718,-14
0:12.720,-13
0:12.722,-18
0:12.724,-21
0:12.726,-23
0:12.728,-25
0:12.730,-27
0:12.732,-26
0:12.734,-26
0:12.736,-25
0:12.738,-24
0:12.740,-25
0:12.742,-29
0:12.744,-29
0:12.746,-31
0:12.748,-32
0:12.750,-33
0:12.752,-32
0:12.754,-29
0:12.756,-28
0:12.758,-27
0:12.760,-27
0:12.762,-29
0:12.764,-30
0:12.766,-32
0:12.768,-34
0:12.770,-34
0:12.772,-31
0:12.774,-30
0:12.776,-28
0:12.778,-27
0:12.780,-28
0:12.782,-29
0:12.784,-33
0:12.786,-32
0:12.788,-33
0:12.790,-32
0:12.792,-30
0:12.794,-28
0:12.796,-28
0:12.798,-28
0:12.800,-29
0:12.802,-31
0:12.804,-34
0:12.806,-36
0:12.808,-36
0:12.810,-33
0:12.812,-31
0:12.814,-30
0:12.816,-26
0:12.818,-24
0:12.820,-28
0:12.822,-28
0:12.824,-27
0:12.826,-29
0:12.828,-31
0:12.830,-30
0:12.832,-30
0:12.834,-30
0:12.836,-30
0:12.838,-26
0:12.840,-27
0:12.842,-26
0:12.844,-30
0:12.846,-30
0:12.848,-28
0:12.850,-29
0:12.852,-25
0:12.854,-24
0:12.856,-24
0:12.858,-24
0:12.860,-26
0:12.862,-25
0:12.864,-28
0:12.866,-31
0:12.868,-30
0:12.870,-31
0:12.872,-26
0:12.874,-24
0:12.876,-22
0:12.878,-22
0:12.880,-26
0:12.882,-28
0:12.884,-30
0:12.886,-32
0:12.888,-32
0:12.890,-30
0:12.892,-29
0:12.894,-26
0:12.896,-24
0:12.898,-23
0:12.900,-26
0:12.902,-28
0:12.904,-30
0:12.906,-31
0:12.908,-31
0:12.910,-28
0:12.912,-28
0:12.914,-25
0:12.916,-20
0:12.918,-22
0:12.920,-26
0:12.922,-29
0:12.924,-31
0:12.926,-32
0:12.928,-33
0:12.930,-32
0:12.932,-30
0:12.934,-29
0:12.936,-25
0:12.938,-27
0:12.940,-30
0:12.942,-32
0:12.944,-31
0:12.946,-32
0:12.948,-31
0:12.950,-26
0:12.952,-27
0:12.954,-26
0:12.956,-24
0:12.958,-22
0:12.960,-24
0:12.962,-27
0:12.964,-30
0:12.966,-28
0:12.968,-31
0:12.970,-30
0:12.972,-25
0:12.974,-25
0:12.976,-21
0:12.978,-22
0:12.980,-24
0:12.982,-24
0:12.984,-25
0:12.986,-26
0:12.988,-28
0:12.990,-24
0:12.992,-23
0:12.994,-23
0:12.996,-20
0:12.998,-21
0:13.000,-25
0:13.002,-27
0:13.004,-25
0:13.006,-24
0:13.008,-21
0:13.010,-18
0:13.012,-17
0:13.014,-13
0:13.016,-15
0:13.018,-16
0:13.020,-16
0:13.022,-17
0:13.024,-18
0:13.026,-19
0:13.028,-21
0:13.030,-17
0:13.032,-16
0:13.034,-17
0:13.036,-16
0:13.038,-16
0:13.040,-21
0:13.042,-24
0:13.044,-25
0:13.046,-29
0:13.048,-33
0:13.050,-33
0:13.052,-30
0:13.054,-30
0:13.056,-29
0:13.058,-27
0:13.060,-31
0:13.062,-32
0:13.064,-33
0:13.066,-32
0:13.068,-34
0:13.070,-33
0:13.072,-31
0:13.074,-32
0:13.076,-28
0:13.078,-31
0:13.080,-36
0:13.082,-37
0:13.084,-36
0:13.086,-38
0:13.088,-38
0:13.090,-35
0:13.092,-32
0:13.094,-31
0:13.096,-30
0:13.098,-28
0:13.100,-32
0:13.102,-34
0:13.104,-36
0:13.106,-39
0:13.108,-40
0:13.110,-34
0:13.112,-32
0:13.114,-32
0:13.116,-32
0:13.118,-32
0:13.120,-33
0:13.122,-34
0:13.124,-37
0:13.126,-36
0:13.128,-34
0:13.130,-31
0:13.132,-30
0:13.134,-32
0:13.136,-35
0:13.138,-37
0:13.140,-40
0:13.142,-41
0:13.144,-46
0:13.146,-50
0:13.148,-48
0:13.150,-43
0:13.152,-31
0:13.154,-22
0:13.156,-9
0:13.158,-4
0:13.160,7
0:13.162,19
0:13.164,32
0:13.166,47
0:13.168,70
0:13.170,94
0:13.172,113
0:13.174,113
0:13.176,104
0:13.178,90
0:13.180,73
0:13.182,54
0:13.184,35
0:13.186,17
0:13.188,-7
0:13.190,-28
0:13.192,-50
0:13.194,-56
0:13.196,-52
0:13.198,-48
0:13.200,-45
0:13.202,-41
0:13.204,-38
0:13.206,-34
0:13.208,-31
0:13.210,-29
0:13.212,-26
0:13.214,-25
0:13.216,-27
0:13.218,-26
0:13.220,-29
0:13.222,-32
0:13.224,-34
0:13.226,-33
0:13.228,-30
0:13.230,-27
0:13.232,-27
0:13.234,-26
0:13.236,-26
0:13.238,-27
0:13.240,-28
0:13.242,-29
0:13.244,-30
0:13.246,-31
0:13.248,-27
0:13.250,-23
0:13.252,-24
0:13.254,-24
0:13.256,-25
0:13.258,-26
0:13.260,-26
0:13.262,-25
0:13.264,-25
0:13.266,-26
0:13.268,-22
0:13.270,-21
0:13.272,-21
0:13.274,-18
0:13.276,-15
0:13.278,-18
0:13.280,-20
0:13.282,-20
0:13.284,-21
0:13.286,-23
0:13.288,-20
0:13.290,-19
0:13.292,-19
0:13.294,-16
0:13.296,-14
0:13.298,-17
0:13.300,-18
0:13.302,-19
0:13.304,-18
0:13.306,-18
0:13.308,-17
0:13.310,-14
0:13.312,-11
0:13.314,-10
0:13.316,-8
0:13.318,-12
0:13.320,-14
0:13.322,-15
0:13.324,-14
0:13.326,-13
0:13.328,-10
0:13.330,-10
0:13.332,-7
0:13.334,-7
0:13.336,-4
0:13.338,-7
0:13.340,-7
0:13.342,-6
0:13.344,-4
0:13.346,-3
0:13.348,-3
0:13.350,1
0:13.352,3
0:13.354,7
0:13.356,10
0:13.358,8
0:13.360,2
0:13.362,7
0:13.364,9
0:13.366,9
0:13.368,13
0:13.370,15
0:13.372,17
0:13.374,20
0:13.376,20
0:13.378,20
0:13.380,19
0:13.382,18
0:13.384,17
0:13.386,18
0:13.388,22
0:13.390,24
0:13.392,23
0:13.394,26
0:13.396,26
0:13.398,23
0:13.400,22
0:13.402,22
0:13.404,19
0:13.406,19
0:13.408,19
0:13.410,22
0:13.412,25
0:13.414,29
0:13.416,29
0:13.418,25
0:13.420,27
0:13.422,24
0:13.424,23
0:13.426,25
0:13.428,24
0:13.430,26
0:13.432,24
0:13.434,23
0:13.436,25
0:13.438,21
0:13.440,14
0:13.442,15
0:13.444,12
0:13.446,11
0:13.448,10
0:13.450,13
0:13.452,12
0:13.454,13
0:13.456,13
0:13.458,9
0:13.460,7
0:13.462,2
0:13.464,2
0:13.466,2
0:13.468,6
0:13.470,5
0:13.472,6
0:13.474,7
0:13.476,6
0:13.478,3
0:13.480,0
0:13.482,1
0:13.484,-1
0:13.486,-2
0:13.488,3
0:13.490,4
0:13.492,3
0:13.494,3
0:13.496,3
0:13.498,0
0:13.500,-2
0:13.502,-5
0:13.504,-2
0:13.506,2
0:13.508,2
0:13.510,4
0:13.512,4
0:13.514,4
0:13.516,5
0:13.518,4
0:13.520,-2
0:13.522,-4
0:13.524,-3
0:13.526,-2
0:13.528,0
0:13.530,2
0:13.532,1
0:13.534,6
0:13.536,4
0:13.538,2
0:13.540,-3
0:13.542,-4
0:13.544,-1
0:13.546,0
0:13.548,3
0:13.550,2
0:13.552,6
0:13.554,5
0:13.556,4
0:13.558,1
0:13.560,0
0:13.562,-2
0:13.564,-2
0:13.566,2
0:13.568,3
0:13.570,3
0:13.572,5
0:13.574,5
0:13.576,3
0:13.578,0
0:13.580,-2
0:13.582,-3
0:13.584,-2
0:13.586,-1
0:13.588,1
0:13.590,2
0:13.592,4
0:13.594,5
0:13.596,2
0:13.598,-1
0:13.600,-3
0:13.602,-7
0:13.604,-5
0:13.606,-2
0:13.608,1
0:13.610,1
0:13.612,0
0:13.614,1
0:13.616,-3
0:13.618,-5
0:13.620,-4
0:13.622,-6
0:13.624,-7
0:13.626,-3
0:13.628,-2
0:13.630,-2
0:13.632,-1
0:13.634,2
0:13.636,-2
0:13.638,-6
0:13.640,-9
0:13.642,-11
0:13.644,-7
0:13.646,-12
0:13.648,-8
0:13.650,-6
0:13.652,-7
0:13.654,-7
0:13.656,-9
0:13.658,-12
0:13.660,-14
0:13.662,-15
0:13.664,-14
0:13.666,-11
0:13.668,-8
0:13.670,-8
0:13.672,-7
0:13.674,-7
0:13.676,-10
0:13.678,-14
0:13.680,-15
0:13.682,-15
0:13.684,-19
0:13.686,-15
0:13.688,-12
0:13.690,-12
0:13.692,-12
0:13.694,-12
0:13.696,-15
0:13.698,-18
0:13.700,-19
0:13.702,-21
0:13.704,-20
0:13.706,-16
0:13.708,-15
0:13.710,-14
0:13.712,-11
0:13.714,-10
0:13.716,-13
0:13.718,-16
0:13.720,-17
0:13.722,-18
0:13.724,-19
0:13.726,-15
0:13.728,-12
0:13.730,-10
0:13.732,-9
0:13.734,-9
0:13.736,-13
0:13.738,-16
0:13.740,-17
0:13.742,-17
0:13.744,-17
0:13.746,-16
0:13.748,-12
0:13.750,-10
0:13.752,-10
0:13.754,-9
0:13.756,-9
0:13.758,-11
0:13.760,-11
0:13.762,-12
0:13.764,-10
0:13.766,-7
0:13.768,-5
0:13.770,-5
0:13.772,-4
0:13.774,-7
0:13.776,-8
0:13.778,-11
0:13.780,-16
0:13.782,-18
0:13.784,-18
0:13.786,-17
0:13.788,-18
0:13.790,-21
0:13.792,-22
0:13.794,-24
0:13.796,-24
0:13.798,-29
0:13.800,-28
0:13.802,-29
0:13.804,-27
0:13.806,-24
0:13.808,-22
0:13.810,-20
0:13.812,-22
0:13.814,-23
0:13.816,-24
0:13.818,-28
0:13.820,-30
0:13.822,-33
0:13.824,-31
0:13.826,-28
0:13.828,-27
0:13.830,-24
0:13.832,-25
0:13.834,-27
0:13.836,-29
0:13.838,-33
0:13.840,-33
0:13.842,-32
0:13.844,-29
0:13.846,-29
0:13.848,-28
0:13.850,-24
0:13.852,-22
0:13.854,-23
0:13.856,-26
0:13.858,-29
0:13.860,-30
0:13.862,-32
0:13.864,-31
0:13.866,-27
0:13.868,-29
0:13.870,-25
0:13.872,-24
0:13.874,-30
0:13.876,-34
0:13.878,-36
0:13.880,-36
0:13.882,-37
0:13.884,-35
0:13.886,-35
0:13.888,-39
0:13.890,-36
0:13.892,-33
0:13.894,-31
0:13.896,-25
0:13.898,-15
0:13.900,-5
0:13.902,5
0:13.904,22
0:13.906,41
0:13.908,59
0:13.910,84
0:13.912,109
0:13.914,126
0:13.916,120
0:13.918,114
0:13.920,97
0:13.922,84
0:13.924,71
0:13.926,53
0:13.928,36
0:13.930,10
0:13.932,-16
0:13.934,-41
0:13.936,-53
0:13.938,-53
0:13.940,-51
0:13.942,-48
0:13.944,-40
0:13.946,-33
0:13.948,-30
0:13.950,-24
0:13.952,-23
0:13.954,-22
0:13.956,-26
0:13.958,-27
0:13.960,-26
0:13.962,-27
0:13.964,-25
0:13.966,-23
0:13.968,-23
0:13.970,-23
0:13.972,-21
0:13.974,-22
0:13.976,-24
0:13.978,-26
0:13.980,-25
0:13.982,-27
0:13.984,-24
0:13.986,-24
0:13.988,-20
0:13.990,-20
0:13.992,-22
0:13.994,-20
0:13.996,-25
0:13.998,-25
0:14.000,-25
0:14.002,-24
0:14.004,-21
0:14.006,-20
0:14.008,-18
0:14.010,-16
0:14.012,-19
0:14.014,-19
0:14.016,-21
0:14.018,-21
0:14.020,-23
0:14.022,-23
0:14.024,-20
0:14.026,-19
0:14.028,-16
0:14.030,-13
0:14.032,-13
0:14.034,-16
0:14.036,-18
0:14.038,-19
0:14.040,-21
0:14.042,-20
0:14.044,-16
0:14.046,-15
0:14.048,-12
0:14.050,-10
0:14.052,-11
0:14.054,-13
0:14.056,-17
0:14.058,-16
0:14.060,-19
0:14.062,-14
0:14.064,-8
0:14.066,-7
0:14.068,-6
0:14.070,-5
0:14.072,-7
0:14.074,-7
0:14.076,-8
0:14.078,-7
0:14.080,-9
0:14.082,-6
0:14.084,-2
0:14.086,1
0:14.088,2
0:14.090,6
0:14.092,7
0:14.094,5
0:14.096,4
0:14.098,4
0:14.100,6
0:14.102,8
0:14.104,13
0:14.106,14
0:14.108,14
0:14.110,15
0:14.112,14
0:14.114,12
0:14.116,12
0:14.118,13
0:14.120,13
0:14.122,14
0:14.124,19
0:14.126,22
0:14.128,22
0:14.130,24
0:14.132,22
0:14.134,20
0:14.136,17
0:14.138,18
0:14.140,17
0:14.142,18
0:14.144,21
0:14.146,22
0:14.148,22
0:14.150,23
0:14.152,23
0:14.154,20
0:14.156,17
0:14.158,12
0:14.160,12
0:14.162,10
0:14.164,11
0:14.166,11
0:14.168,6
0:14.170,5
0:14.172,6
0:14.174,1
0:14.176,1
0:14.178,-3
0:14.180,-6
0:14.182,-5
0:14.184,-3
0:14.186,-4
0:14.188,-6
0:14.190,-6
0:14.192,-12
0:14.194,-15
0:14.196,-16
0:14.198,-20
0:14.200,-19
0:14.202,-20
0:14.204,-19
0:14.206,-19
0:14.208,-21
0:14.210,-21
0:14.212,-23
0:14.214,-27
0:14.216,-28
0:14.218,-29
0:14.220,-28
0:14.222,-27
0:14.224,-25
0:14.226,-23
0:14.228,-23
0:14.230,-23
0:14.232,-25
0:14.234,-27
0:14.236,-27
0:14.238,-30
0:14.240,-30
0:14.242,-26
0:14.244,-23
0:14.246,-24
0:14.248,-22
0:14.250,-24
0:14.252,-27
0:14.254,-30
0:14.256,-31
0:14.258,-31
0:14.260,-29
0:14.262,-27
0:14.264,-26
0:14.266,-25
0:14.268,-22
0:14.270,-22
0:14.272,-23
0:14.274,-25
0:14.276,-26
0:14.278,-28
0:14.280,-29
0:14.282,-28
0:14.284,-26
0:14.286,-25
0:14.288,-24
0:14.290,-23
0:14.292,-26
0:14.294,-24
0:14.296,-25
0:14.298,-27
0:14.300,-28
0:14.302,-27
0:14.304,-24
0:14.306,-23
0:14.308,-22
0:14.310,-23
0:14.312,-27
0:14.314,-28
0:14.316,-29
0:14.318,-29
0:14.320,-27
0:14.322,-23
0:14.324,-23
0:14.326,-21
0:14.328,-22
0:14.330,-24
0:14.332,-25
0:14.334,-27
0:14.336,-28
0:14.338,-32
0:14.340,-30
0:14.342,-26
0:14.344,-24
0:14.346,-22
0:14.348,-23
0:14.350,-26
0:14.352,-29
0:14.354,-26
0:14.356,-30
0:14.358,-32
0:14.360,-29
0:14.362,-27
0:14.364,-24
0:14.366,-25
0:14.368,-27
0:14.370,-27
0:14.372,-30
0:14.374,-29
0:14.376,-33
0:14.378,-33
0:14.380,-34
0:14.382,-29
0:14.384,-24
0:14.386,-26
0:14.388,-25
0:14.390,-28
0:14.392,-30
0:14.394,-32
0:14.396,-31
0:14.398,-30
0:14.400,-31
0:14.402,-28
0:14.404,-27
0:14.406,-28
0:14.408,-27
0:14.410,-30
0:14.412,-31
0:14.414,-33
0:14.416,-32
0:14.418,-35
0:14.420,-34
0:14.422,-33
0:14.424,-31
0:14.426,-28
0:14.428,-28
0:14.430,-31
0:14.432,-33
0:14.434,-32
0:14.436,-32
0:14.438,-35
0:14.440,-31
0:14.442,-32
0:14.444,-29
0:14.446,-27
0:14.448,-28
0:14.450,-31
0:14.452,-31
0:14.454,-32
0:14.456,-33
0:14.458,-35
0:14.460,-33
0:14.462,-31
0:14.464,-28
0:14.466,-25
0:14.468,-26
0:14.470,-28
0:14.472,-30
0:14.474,-31
0:14.476,-32
0:14.478,-36
0:14.480,-33
0:14.482,-31
0:14.484,-28
0:14.486,-28
0:14.488,-28
0:14.490,-30
0:14.492,-30
0:14.494,-27
0:14.496,-27
0:14.498,-32
0:14.500,-27
0:14.502,-25
0:14.504,-24
0:14.506,-20
0:14.508,-19
0:14.510,-22
0:14.512,-27
0:14.514,-27
0:14.516,-26
0:14.518,-25
0:14.520,-25
0:14.522,-23
0:14.524,-22
0:14.526,-22
0:14.528,-18
0:14.530,-20
0:14.532,-23
0:14.534,-22
0:14.536,-21
0:14.538,-20
0:14.540,-20
0:14.542,-18
0:14.544,-18
0:14.546,-15
0:14.548,-16
0:14.550,-14
0:14.552,-19
0:14.554,-21
0:14.556,-23
0:14.558,-25
0:14.560,-23
0:14.562,-23
0:14.564,-20
0:14.566,-18
0:14.568,-24
0:14.570,-30
0:14.572,-31
0:14.574,-34
0:14.576,-32
0:14.578,-33
0:14.580,-32
0:14.582,-27
0:14.584,-26
0:14.586,-25
0:14.588,-28
0:14.590,-30
0:14.592,-33
0:14.594,-34
0:14.596,-36
0:14.598,-36
0:14.600,-31
0:14.602,-30
0:14.604,-33
0:14.606,-31
0:14.608,-32
0:14.610,-32
0:14.612,-33
0:14.614,-37
0:14.616,-34
0:14.618,-37
0:14.620,-33
0:14.622,-29
0:14.624,-28
0:14.626,-26
0:14.628,-29
0:14.630,-34
0:14.632,-39
0:14.634,-39
0:14.636,-40
0:14.638,-41
0:14.640,-35
0:14.642,-33
0:14.644,-32
0:14.646,-32
0:14.648,-34
0:14.650,-35
0:14.652,-37
0:14.654,-39
0:14.656,-41
0:14.658,-43
0:14.660,-41
0:14.662,-38
0:14.664,-40
0:14.666,-40
0:14.668,-39
0:14.670,-38
0:14.672,-34
0:14.674,-25
0:14.676,-13
0:14.678,-2
0:14.680,15
0:14.682,29
0:14.684,43
0:14.686,64
0:14.688,89
0:14.690,107
0:14.692,110
0:14.694,108
0:14.696,96
0:14.698,86
0:14.700,73
0:14.702,57
0:14.704,39
0:14.706,22
0:14.708,-5
0:14.710,-31
0:14.712,-49
0:14.714,-60
0:14.716,-58
0:14.718,-52
0:14.720,-45
0:14.722,-40
0:14.724,-36
0:14.726,-30
0:14.728,-30
0:14.730,-29
0:14.732,-29
0:14.734,-28
0:14.736,-28
0:14.738,-26
0:14.740,-25
0:14.742,-24
0:14.744,-27
0:14.746,-23
0:14.748,-23
0:14.750,-27
0:14.752,-30
0:14.754,-29
0:14.756,-31
0:14.758,-28
0:14.760,-22
0:14.762,-23
0:14.764,-21
0:14.766,-21
0:14.768,-22
0:14.770,-22
0:14.772,-21
0:14.774,-22
0:14.776,-26
0:14.778,-25
0:14.780,-23
0:14.782,-20
0:14.784,-20
0:14.786,-20
0:14.788,-21
0:14.790,-22
0:14.792,-24
0:14.794,-24
0:14.796,-25
0:14.798,-19
0:14.800,-16
0:14.802,-17
0:14.804,-16
0:14.806,-15
0:14.808,-15
0:14.810,-17
0:14.812,-18
0:14.814,-18
0:14.816,-17
0:14.818,-14
0:14.820,-12
0:14.822,-11
0:14.824,-11
0:14.826,-9
0:14.828,-10
0:14.830,-13
0:14.832,-11
0:14.834,-16
0:14.836,-15
0:14.838,-10
0:14.840,-8
0:14.842,-8
0:14.844,-7
0:14.846,-8
0:14.848,-9
0:14.850,-9
0:14.852,-6
0:14.854,-8
0:14.856,-4
0:14.858,-2
0:14.860,0
0:14.862,0
0:14.864,1
0:14.866,1
0:14.868,-1
0:14.870,-1
0:14.872,1
0:14.874,-1
0:14.876,0
0:14.878,5
0:14.880,7
0:14.882,11
0:14.884,14
0:14.886,18
0:14.888,16
0:14.890,14
0:14.892,13
0:14.894,11
0:14.896,14
0:14.898,14
0:14.900,18
0:14.902,22
0:14.904,24
0:14.906,24
0:14.908,23
0:14.910,22
0:14.912,23
0:14.914,19
0:14.916,20
0:14.918,24
0:14.920,23
0:14.922,24
0:14.924,23
0:14.926,19
0:14.928,17
0:14.930,16
0:14.932,14
0:14.934,13
0:14.936,11
0:14.938,11
0:14.940,12
0:14.942,11
0:14.944,10
0:14.946,10
0:14.948,5
0:14.950,-1
0:14.952,-4
0:14.954,-6
0:14.956,-7
0:14.958,-6
0:14.960,-4
0:14.962,-4
0:14.964,-4
0:14.966,-9
0:14.968,-12
0:14.970,-14
0:14.972,-14
0:14.974,-19
0:14.976,-17
0:14.978,-17
0:14.980,-16
0:14.982,-16
0:14.984,-15
0:14.986,-18
0:14.988,-21
0:14.990,-23
0:14.992,-22
0:14.994,-23
0:14.996,-23
0:14.998,-26
0:15.000,-27
0:15.002,-27
0:15.004,-27
0:15.006,-28
0:15.008,-28
0:15.010,-28
0:15.012,-28
0:15.014,-29
0:15.016,-28
0:15.018,-25
0:15.020,-24
0:15.022,-24
0:15.024,-23
0:15.026,-24
0:15.028,-27
0:15.030,-26
0:15.032,-28
0:15.034,-30
0:15.036,-32
0:15.038,-24
0:15.040,-23
0:15.042,-22
0:15.044,-21
0:15.046,-24
0:15.048,-23
0:15.050,-26
0:15.052,-29
0:15.054,-27
0:15.056,-22
0:15.058,-19
0:15.060,-22
0:15.062,-23
0:15.064,-22
0:15.066,-22
0:15.068,-24
0:15.070,-25
0:15.072,-25
0:15.074,-26
0:15.076,-27
0:15.078,-24
0:15.080,-22
0:15.082,-20
0:15.084,-19
0:15.086,-21
0:15.088,-22
0:15.090,-21
0:15.092,-22
0:15.094,-23
0:15.096,-22
0:15.098,-20
0:15.100,-20
0:15.102,-22
0:15.104,-22
0:15.106,-22
0:15.108,-21
0:15.110,-22
0:15.112,-24
0:15.114,-27
0:15.116,-25
0:15.118,-20
0:15.120,-18
0:15.122,-17
0:15.124,-18
0:15.126,-20
0:15.128,-22
0:15.130,-22
0:15.132,-22
0:15.134,-23
0:15.136,-25
0:15.138,-22
0:15.140,-21
0:15.142,-20
0:15.144,-18
0:15.146,-21
0:15.148,-23
0:15.150,-24
0:15.152,-25
0:15.154,-24
0:15.156,-22
0:15.158,-20
0:15.160,-20
0:15.162,-17
0:15.164,-18
0:15.166,-20
0:15.168,-23
0:15.170,-23
0:15.172,-27
0:15.174,-25
0:15.176,-22
0:15.178,-20
0:15.180,-19
0:15.182,-18
0:15.184,-18
0:15.186,-14
0:15.188,-13
0:15.190,-13
0:15.192,-14
0:15.194,-11
0:15.196,-6
0:15.198,-7
0:15.200,-4
0:15.202,-2
0:15.204,-2
0:15.206,-3
0:15.208,-4
0:15.210,-5
0:15.212,-7
0:15.214,-4
0:15.216,-3
0:15.218,-2
0:15.220,-2
0:15.222,2
0:15.224,4
0:15.226,3
0:15.228,-2
0:15.230,-5
0:15.232,-4
0:15.234,-3
0:15.236,1
0:15.238,1
0:15.240,2
0:15.242,4
0:15.244,5
0:15.246,2
0:15.248,-1
0:15.250,-2
0:15.252,-4
0:15.254,-4
0:15.256,1
0:15.258,3
0:15.260,2
0:15.262,5
0:15.264,6
0:15.266,1
0:15.268,0
0:15.270,1
0:15.272,1
0:15.274,3
0:15.276,5
0:15.278,4
0:15.280,7
0:15.282,9
0:15.284,8
0:15.286,3
0:15.288,0
0:15.290,-1
0:15.292,-3
0:15.294,-1
0:15.296,7
0:15.298,8
0:15.300,11
0:15.302,14
0:15.304,17
0:15.306,11
0:15.308,9
0:15.310,8
0:15.312,4
0:15.314,3
0:15.316,8
0:15.318,12
0:15.320,12
0:15.322,13
0:15.324,13
0:15.326,11
0:15.328,11
0:15.330,8
0:15.332,6
0:15.334,5
0:15.336,5
0:15.338,4
0:15.340,5
0:15.342,4
0:15.344,0
0:15.346,-4
0:15.348,-6
0:15.350,-8
0:15.352,-8
0:15.354,-6
0:15.356,-2
0:15.358,-1
0:15.360,2
0:15.362,1
0:15.364,1
0:15.366,-2
0:15.368,-6
0:15.370,-8
0:15.372,-9
0:15.374,-9
0:15.376,-9
0:15.378,-9
0:15.380,-3
0:15.382,-1
0:15.384,-6
0:15.386,-9
0:15.388,-12
0:15.390,-13
0:15.392,-12
0:15.394,-11
0:15.396,-9
0:15.398,-6
0:15.400,-7
0:15.402,-7
0:15.404,-9
0:15.406,-9
0:15.408,-10
0:15.410,-10
0:15.412,-12
0:15.414,-13
0:15.416,-8
0:15.418,-9
0:15.420,-8
0:15.422,-6
0:15.424,-10
0:15.426,-12
0:15.428,-15
0:15.430,-19
0:15.432,-19
0:15.434,-16
0:15.436,-16
0:15.438,-15
0:15.440,-18
0:15.442,-19
0:15.444,-19
0:15.446,-15
0:15.448,-7
0:15.450,2
0:15.452,13
0:15.454,21
0:15.456,38
0:15.458,52
0:15.460,76
0:15.462,96
0:15.464,119
0:15.466,127
0:15.468,126
0:15.470,123
0:15.472,112
0:15.474,102
0:15.476,86
0:15.478,67
0:15.480,50
0:15.482,25
0:15.484,-5
0:15.486,-27
0:15.488,-40
0:15.490,-44
0:15.492,-39
0:15.494,-33
0:15.496,-25
0:15.498,-19
0:15.500,-14
0:15.502,-11
0:15.504,-10
0:15.506,-10
0:15.508,-14
0:15.510,-15
0:15.512,-16
0:15.514,-15
0:15.516,-14
0:15.518,-11
0:15.520,-11
0:15.522,-12
0:15.524,-14
0:15.526,-14
0:15.528,-12
0:15.530,-15
0:15.532,-16
0:15.534,-12
0:15.536,-10
0:15.538,-11
0:15.540,-9
0:15.542,-10
0:15.544,-14
0:15.546,-17
0:15.548,-16
0:15.550,-17
0:15.552,-16
0:15.554,-13
0:15.556,-7
0:15.558,-8
0:15.560,-8
0:15.562,-11
0:15.564,-13
0:15.566,-11
0:15.568,-14
0:15.570,-16
0:15.572,-13
0:15.574,-10
0:15.576,-8
0:15.578,-8
0:15.580,-3
0:15.582,-4
0:15.584,-7
0:15.586,-9
0:15.588,-10
0:15.590,-10
0:15.592,-7
0:15.594,-7
0:15.596,-6
0:15.598,-7
0:15.600,-2
0:15.602,-4
0:15.604,-8
0:15.606,-9
0:15.608,-10
0:15.610,-10
0:15.612,-8
0:15.614,-5
0:15.616,-1
0:15.618,-1
0:15.620,1
0:15.622,-1
0:15.624,-1
0:15.626,-3
0:15.628,-4
0:15.630,-3
0:15.632,-1
0:15.634,1
0:15.636,2
0:15.638,6
0:15.640,9
0:15.642,9
0:15.644,8
0:15.646,6
0:15.648,9
0:15.650,7
0:15.652,11
0:15.654,15
0:15.656,17
0:15.658,18
0:15.660,21
0:15.662,20
0:15.664,17
0:15.666,17
0:15.668,19
0:15.670,19
0:15.672,21
0:15.674,24
0:15.676,25
0:15.678,26
0:15.680,29
0:15.682,29
0:15.684,28
0:15.686,27
0:15.688,26
0:15.690,24
0:15.692,26
0:15.694,27
0:15.696,25
0:15.698,25
0:15.700,24
0:15.702,23
0:15.704,22
0:15.706,19
0:15.708,18
0:15.710,17
0:15.712,19
0:15.714,16
0:15.716,16
0:15.718,15
0:15.720,14
0:15.722,8
0:15.724,5
0:15.726,0
0:15.728,-1
0:15.730,-2
0:15.732,-3
0:15.734,-5
0:15.736,-4
0:15.738,-4
0:15.740,-4
0:15.742,-9
0:15.744,-14
0:15.746,-14
0:15.748,-17
0:15.750,-17
0:15.752,-18
0:15.754,-17
0:15.756,-16
0:15.758,-14
0:15.760,-15
0:15.762,-18
0:15.764,-23
0:15.766,-27
0:15.768,-28
0:15.770,-30
0:15.772,-26
0:15.774,-23
0:15.776,-25
0:15.778,-21
0:15.780,-22
0:15.782,-23
0:15.784,-25
0:15.786,-26
0:15.788,-29
0:15.790,-29
0:15.792,-28
0:15.794,-27
0:15.796,-24
0:15.798,-23
0:15.800,-22
0:15.802,-22
0:15.804,-26
0:15.806,-26
0:15.808,-27
0:15.810,-28
0:15.812,-25
0:15.814,-23
0:15.816,-23
0:15.818,-22
0:15.820,-25
0:15.822,-27
0:15.824,-28
0:15.826,-25
0:15.828,-27
0:15.830,-27
0:15.832,-24
0:15.834,-21
0:15.836,-22
0:15.838,-22
0:15.840,-23
0:15.842,-25
0:15.844,-26
0:15.846,-27
0:15.848,-27
0:15.850,-25
0:15.852,-24
0:15.854,-20
0:15.856,-21
0:15.858,-20
0:15.860,-22
0:15.862,-24
0:15.864,-27
0:15.866,-26
0:15.868,-25
0:15.870,-25
0:15.872,-24
0:15.874,-20
0:15.876,-22
0:15.878,-20
0:15.880,-21
0:15.882,-26
0:15.884,-26
0:15.886,-27
0:15.888,-27
0:15.890,-24
0:15.892,-22
0:15.894,-21
0:15.896,-21
0:15.898,-20
0:15.900,-23
0:15.902,-24
0:15.904,-26
0:15.906,-27
0:15.908,-28
0:15.910,-26
0:15.912,-25
0:15.914,-24
0:15.916,-26
0:15.918,-23
0:15.920,-26
0:15.922,-29
0:15.924,-27
0:15.926,-30
0:15.928,-31
0:15.930,-30
0:15.932,-27
0:15.934,-25
0:15.936,-23
0:15.938,-21
0:15.940,-24
0:15.942,-27
0:15.944,-30
0:15.946,-32
0:15.948,-32
0:15.950,-30
0:15.952,-28
0:15.954,-28
0:15.956,-26
0:15.958,-24
0:15.960,-25
0:15.962,-27
0:15.964,-27
0:15.966,-29
0:15.968,-33
0:15.970,-30
0:15.972,-29
0:15.974,-29
0:15.976,-27
0:15.978,-27
0:15.980,-30
0:15.982,-31
0:15.984,-31
0:15.986,-33
0:15.988,-34
0:15.990,-33
0:15.992,-30
0:15.994,-28
0:15.996,-28
0:15.998,-28
0:16.000,-30
0:16.002,-32
0:16.004,-35
0:16.006,-35
0:16.008,-36
0:16.010,-33
0:16.012,-31
0:16.014,-30
0:16.016,-26
0:16.018,-26
0:16.020,-30
0:16.022,-30
0:16.024,-33
0:16.026,-34
0:16.028,-34
0:16.030,-32
0:16.032,-29
0:16.034,-30
0:16.036,-29
0:16.038,-26
0:16.040,-28
0:16.042,-31
0:16.044,-31
0:16.046,-32
0:16.048,-35
0:16.050,-33
0:16.052,-30
0:16.054,-31
0:16.056,-30
0:16.058,-28
0:16.060,-29
0:16.062,-31
0:16.064,-29
0:16.066,-32
0:16.068,-30
0:16.070,-27
0:16.072,-26
0:16.074,-24
0:16.076,-24
0:16.078,-24
0:16.080,-26
0:16.082,-30
0:16.084,-31
0:16.086,-30
0:16.088,-29
0:16.090,-27
0:16.092,-23
0:16.094,-24
0:16.096,-24
0:16.098,-22
0:16.100,-22
0:16.102,-23
0:16.104,-22
0:16.106,-23
0:16.108,-21
0:16.110,-18
0:16.112,-18
0:16.114,-18
0:16.116,-16
0:16.118,-17
0:16.120,-19
0:16.122,-22
0:16.124,-21
0:16.126,-21
0:16.128,-18
0:16.130,-18
0:16.132,-17
0:16.134,-17
0:16.136,-19
0:16.138,-23
0:16.140,-25
0:16.142,-28
0:16.144,-28
0:16.146,-31
0:16.148,-31
0:16.150,-31
0:16.152,-30
0:16.154,-31
0:16.156,-29
0:16.158,-28
0:16.160,-28
0:16.162,-28
0:16.164,-31
0:16.166,-34
0:16.168,-35
0:16.170,-30
0:16.172,-30
0:16.174,-30
0:16.176,-27
0:16.178,-30
0:16.180,-32
0:16.182,-35
0:16.184,-37
0:16.186,-39
0:16.188,-37
0:16.190,-37
0:16.192,-33
0:16.194,-32
0:16.196,-33
0:16.198,-35
0:16.200,-35
0:16.202,-38
0:16.204,-37
0:16.206,-36
0:16.208,-35
0:16.210,-32
0:16.212,-32
0:16.214,-29
0:16.216,-27
0:16.218,-32
0:16.220,-35
0:16.222,-39
0:16.224,-41
0:16.226,-40
0:16.228,-39
0:16.230,-37
0:16.232,-37
0:16.234,-37
0:16.236,-35
0:16.238,-38
0:16.240,-43
0:16.242,-44
0:16.244,-47
0:16.246,-46
0:16.248,-39
0:16.250,-28
0:16.252,-15
0:16.254,-3
0:16.256,7
0:16.258,19
0:16.260,29
0:16.262,45
0:16.264,64
0:16.266,86
0:16.268,109
0:16.270,116
0:16.272,115
0:16.274,107
0:16.276,93
0:16.278,76
0:16.280,57
0:16.282,40
0:16.284,15
0:16.286,-11
0:16.288,-33
0:16.290,-48
0:16.292,-52
0:16.294,-50
0:16.296,-43
0:16.298,-42
0:16.300,-38
0:16.302,-36
0:16.304,-34
0:16.306,-35
0:16.308,-31
0:16.310,-25
0:16.312,-23
0:16.314,-27
0:16.316,-28
0:16.318,-29
0:16.320,-31
0:16.322,-30
0:16.324,-32
0:16.326,-33
0:16.328,-30
0:16.330,-28
0:16.332,-25
0:16.334,-25
0:16.336,-26
0:16.338,-26
0:16.340,-27
0:16.342,-30
0:16.344,-29
0:16.346,-31
0:16.348,-27
0:16.350,-25
0:16.352,-25
0:16.354,-22
0:16.356,-25
0:16.358,-25
0:16.360,-26
0:16.362,-26
0:16.364,-24
0:16.366,-25
0:16.368,-22
0:16.370,-20
0:16.372,-21
0:16.374,-19
0:16.376,-21
0:16.378,-22
0:16.380,-24
0:16.382,-23
0:16.384,-25
0:16.386,-24
0:16.388,-22
0:16.390,-21
0:16.392,-17
0:16.394,-16
0:16.396,-17
0:16.398,-19
0:16.400,-21
0:16.402,-21
0:16.404,-20
0:16.406,-20
0:16.408,-16
0:16.410,-16
0:16.412,-14
0:16.414,-13
0:16.416,-11
0:16.418,-13
0:16.420,-17
0:16.422,-18
0:16.424,-18
0:16.426,-16
0:16.428,-12
0:16.430,-7
0:16.432,-7
0:16.434,-6
0:16.436,-6
0:16.438,-9
0:16.440,-8
0:16.442,-9
0:16.444,-10
0:16.446,-7
0:16.448,-5
0:16.450,-3
0:16.452,2
0:16.454,3
0:16.456,4
0:16.458,3
0:16.460,1
0:16.462,3
0:16.464,4
0:16.466,3
0:16.468,12
0:16.470,10
0:16.472,14
0:16.474,14
0:16.476,14
0:16.478,10
0:16.480,10
0:16.482,15
0:16.484,15
0:16.486,18
0:16.488,18
0:16.490,20
0:16.492,19
0:16.494,23
0:16.496,21
0:16.498,20
0:16.500,16
0:16.502,18
0:16.504,15
0:16.506,16
0:16.508,15
0:16.510,17
0:16.512,17
0:16.514,16
0:16.516,13
0:16.518,10
0:16.520,6
0:16.522,2
0:16.524,1
0:16.526,-1
0:16.528,1
0:16.530,-1
0:16.532,-1
0:16.534,-2
0:16.536,-6
0:16.538,-9
0:16.540,-12
0:16.542,-15
0:16.544,-18
0:16.546,-17
0:16.548,-17
0:16.550,-16
0:16.552,-17
0:16.554,-16
0:16.556,-18
0:16.558,-21
0:16.560,-23
0:16.562,-26
0:16.564,-30
0:16.566,-28
0:16.568,-26
0:16.570,-24
0:16.572,-21
0:16.574,-21
0:16.576,-24
0:16.578,-25
0:16.580,-27
0:16.582,-29
0:16.584,-30
0:16.586,-30
0:16.588,-27
0:16.590,-26
0:16.592,-25
0:16.594,-25
0:16.596,-27
0:16.598,-30
0:16.600,-31
0:16.602,-32
0:16.604,-32
0:16.606,-27
0:16.608,-26
0:16.610,-26
0:16.612,-26
0:16.614,-28
0:16.616,-29
0:16.618,-30
0:16.620,-30
0:16.622,-31
0:16.624,-31
0:16.626,-28
0:16.628,-28
0:16.630,-26
0:16.632,-27
0:16.634,-27
0:16.636,-28
0:16.638,-27
0:16.640,-27
0:16.642,-31
0:16.644,-29
0:16.646,-25
0:16.648,-25
0:16.650,-25
0:16.652,-21
0:16.654,-23
0:16.656,-25
0:16.658,-24
0:16.660,-26
0:16.662,-27
0:16.664,-28
0:16.666,-24
0:16.668,-21
0:16.670,-21
0:16.672,-19
0:16.674,-21
0:16.676,-24
0:16.678,-27
0:16.680,-29
0:16.682,-30
0:16.684,-28
0:16.686,-25
0:16.688,-24
0:16.690,-23
0:16.692,-21
0:16.694,-24
0:16.696,-25
0:16.698,-26
0:16.700,-28
0:16.702,-29
0:16.704,-26
0:16.706,-23
0:16.708,-23
0:16.710,-24
0:16.712,-22
0:16.714,-24
0:16.716,-23
0:16.718,-26
0:16.720,-28
0:16.722,-30
0:16.724,-28
0:16.726,-25
0:16.728,-25
0:16.730,-22
0:16.732,-22
0:16.734,-23
0:16.736,-25
0:16.738,-26
0:16.740,-29
0:16.742,-31
0:16.744,-29
0:16.746,-27
0:16.748,-27
0:16.750,-25
0:16.752,-23
0:16.754,-24
0:16.756,-26
0:16.758,-28
0:16.760,-29
0:16.762,-31
0:16.764,-30
0:16.766,-29
0:16.768,-27
0:16.770,-26
0:16.772,-24
0:16.774,-27
0:16.776,-30
0:16.778,-29
0:16.780,-28
0:16.782,-31
0:16.784,-28
0:16.786,-25
0:16.788,-24
0:16.790,-24
0:16.792,-24
0:16.794,-27
0:16.796,-30
0:16.798,-30
0:16.800,-29
0:16.802,-32
0:16.804,-31
0:16.806,-30
0:16.808,-28
0:16.810,-28
0:16.812,-25
0:16.814,-25
0:16.816,-26
0:16.818,-28
0:16.820,-30
0:16.822,-30
0:16.824,-30
0:16.826,-29
0:16.828,-28
0:16.830,-26
0:16.832,-25
0:16.834,-26
0:16.836,-29
0:16.838,-29
0:16.840,-31
0:16.842,-34
0:16.844,-30
0:16.846,-28
0:16.848,-27
0:16.850,-25
0:16.852,-25
0:16.854,-29
0:16.856,-27
0:16.858,-31
0:16.860,-31
0:16.862,-34
0:16.864,-31
0:16.866,-27
0:16.868,-24
0:16.870,-25
0:16.872,-23
0:16.874,-27
0:16.876,-31
0:16.878,-31
0:16.880,-31
0:16.882,-31
0:16.884,-27
0:16.886,-26
0:16.888,-22
0:16.890,-18
0:16.892,-17
0:16.894,-20
0:16.896,-26
0:16.898,-27
0:16.900,-25
0:16.902,-25
0:16.904,-22
0:16.906,-21
0:16.908,-21
0:16.910,-21
0:16.912,-23
0:16.914,-23
0:16.916,-24
0:16.918,-22
0:16.920,-21
0:16.922,-19
0:16.924,-16
0:16.926,-13
0:16.928,-12
0:16.930,-13
0:16.932,-13
0:16.934,-14
0:16.936,-15
0:16.938,-16
0:16.940,-18
0:16.942,-18
0:16.944,-15
0:16.946,-15
0:16.948,-15
0:16.950,-14
0:16.952,-16
0:16.954,-19
0:16.956,-22
0:16.958,-24
0:16.960,-28
0:16.962,-29
0:16.964,-26
0:16.966,-25
0:16.968,-24
0:16.970,-22
0:16.972,-23
0:16.974,-23
0:16.976,-27
0:16.978,-28
0:16.980,-30
0:16.982,-31
0:16.984,-29
0:16.986,-25
0:16.988,-23
0:16.990,-23
0:16.992,-25
0:16.994,-29
0:16.996,-29
0:16.998,-29
0:17.000,-33
0:17.002,-34
0:17.004,-30
0:17.006,-27
0:17.008,-24
0:17.010,-26
0:17.012,-27
0:17.014,-30
0:17.016,-34
0:17.018,-34
0:17.020,-34
0:17.022,-34
0:17.024,-32
0:17.026,-28
0:17.028,-25
0:17.030,-23
0:17.032,-27
0:17.034,-30
0:17.036,-31
0:17.038,-34
0:17.040,-34
0:17.042,-34
0:17.044,-31
0:17.046,-31
0:17.048,-30
0:17.050,-31
0:17.052,-33
0:17.054,-36
0:17.056,-38
0:17.058,-42
0:17.060,-44
0:17.062,-40
0:17.064,-37
0:17.066,-26
0:17.068,-12
0:17.070,-1
0:17.072,7
0:17.074,17
0:17.076,30
0:17.078,39
0:17.080,58
0:17.082,81
0:17.084,109
0:17.086,128
0:17.088,123
0:17.090,124
0:17.092,108
0:17.094,94
0:17.096,75
0:17.098,56
0:17.100,37
0:17.102,15
0:17.104,-8
0:17.106,-31
0:17.108,-38
0:17.110,-40
0:17.112,-39
0:17.114,-42
0:17.116,-39
0:17.118,-35
0:17.120,-30
0:17.122,-27
0:17.124,-23
0:17.126,-19
0:17.128,-20
0:17.130,-19
0:17.132,-22
0:17.134,-25
0:17.136,-28
0:17.138,-29
0:17.140,-29
0:17.142,-27
0:17.144,-23
0:17.146,-24
0:17.148,-21
0:17.150,-18
0:17.152,-21
0:17.154,-23
0:17.156,-25
0:17.158,-26
0:17.160,-26
0:17.162,-23
0:17.164,-21
0:17.166,-19
0:17.168,-16
0:17.170,-16
0:17.172,-17
0:17.174,-18
0:17.176,-18
0:17.178,-19
0:17.180,-23
0:17.182,-22
0:17.184,-22
0:17.186,-19
0:17.188,-18
0:17.190,-18
0:17.192,-18
0:17.194,-20
0:17.196,-20
0:17.198,-22
0:17.200,-21
0:17.202,-18
0:17.204,-14
0:17.206,-13
0:17.208,-12
0:17.210,-10
0:17.212,-11
0:17.214,-13
0:17.216,-14
0:17.218,-16
0:17.220,-17
0:17.222,-17
0:17.224,-12
0:17.226,-10
0:17.228,-11
0:17.230,-10
0:17.232,-13
0:17.234,-10
0:17.236,-12
0:17.238,-15
0:17.240,-13
0:17.242,-9
0:17.244,-6
0:17.246,-5
0:17.248,-2
0:17.250,-4
0:17.252,-5
0:17.254,-6
0:17.256,-6
0:17.258,-7
0:17.260,-5
0:17.262,0
0:17.264,3
0:17.266,4
0:17.268,9
0:17.270,9
0:17.272,8
0:17.274,8
0:17.276,8
0:17.278,10
0:17.280,10
0:17.282,11
0:17.284,15
0:17.286,19
0:17.288,22
0:17.290,22
0:17.292,20
0:17.294,21
0:17.296,22
0:17.298,22
0:17.300,23
0:17.302,24
0:17.304,25
0:17.306,29
0:17.308,29
0:17.310,30
0:17.312,28
0:17.314,25
0:17.316,25
0:17.318,25
0:17.320,24
0:17.322,25
0:17.324,26
0:17.326,26
0:17.328,27
0:17.330,26
0:17.332,22
0:17.334,19
0:17.336,16
0:17.338,13
0:17.340,10
0:17.342,13
0:17.344,11
0:17.346,10
0:17.348,11
0:17.350,9
0:17.352,3
0:17.354,1
0:17.356,-5
0:17.358,-8
0:17.360,-4
0:17.362,-2
0:17.364,-4
0:17.366,-6
0:17.368,-6
0:17.370,-8
0:17.372,-10
0:17.374,-13
0:17.376,-13
0:17.378,-16
0:17.380,-14
0:17.382,-17
0:17.384,-17
0:17.386,-16
0:17.388,-16
0:17.390,-16
0:17.392,-18
0:17.394,-21
0:17.396,-21
0:17.398,-21
0:17.400,-20
0:17.402,-17
0:17.404,-15
0:17.406,-15
0:17.408,-17
0:17.410,-17
0:17.412,-21
0:17.414,-21
0:17.416,-23
0:17.418,-26
0:17.420,-24
0:17.422,-19
0:17.424,-17
0:17.426,-16
0:17.428,-15
0:17.430,-17
0:17.432,-19
0:17.434,-21
0:17.436,-21
0:17.438,-24
0:17.440,-17
0:17.442,-16
0:17.444,-15
0:17.446,-15
0:17.448,-16
0:17.450,-18
0:17.452,-19
0:17.454,-19
0:17.456,-19
0:17.458,-21
0:17.460,-18
0:17.462,-15
0:17.464,-15
0:17.466,-16
0:17.468,-15
0:17.470,-18
0:17.472,-19
0:17.474,-22
0:17.476,-22
0:17.478,-20
0:17.480,-15
0:17.482,-14
0:17.484,-12
0:17.486,-10
0:17.488,-11
0:17.490,-14
0:17.492,-15
0:17.494,-16
0:17.496,-16
0:17.498,-15
0:17.500,-15
0:17.502,-14
0:17.504,-10
0:17.506,-9
0:17.508,-7
0:17.510,-11
0:17.512,-13
0:17.514,-13
0:17.516,-14
0:17.518,-14
0:17.520,-13
0:17.522,-11
0:17.524,-8
0:17.526,-6
0:17.528,-6
0:17.530,-9
0:17.532,-11
0:17.534,-13
0:17.536,-12
0:17.538,-9
0:17.540,-8
0:17.542,-7
0:17.544,-7
0:17.546,-7
0:17.548,-4
0:17.550,-8
0:17.552,-9
0:17.554,-11
0:17.556,-14
0:17.558,-13
0:17.560,-11
0:17.562,-8
0:17.564,-3
0:17.566,-8
0:17.568,-9
0:17.570,-9
0:17.572,-11
0:17.574,-13
0:17.576,-14
0:17.578,-13
0:17.580,-10
0:17.582,-7
0:17.584,-7
0:17.586,-7
0:17.588,-7
0:17.590,-10
0:17.592,-12
0:17.594,-11
0:17.596,-14
0:17.598,-14
0:17.600,-11
0:17.602,-9
0:17.604,-8
0:17.606,-6
0:17.608,-5
0:17.610,-10
0:17.612,-13
0:17.614,-17
0:17.616,-17
0:17.618,-14
0:17.620,-11
0:17.622,-7
0:17.624,-8
0:17.626,-9
0:17.628,-9
0:17.630,-10
0:17.632,-15
0:17.634,-15
0:17.636,-19
0:17.638,-18
0:17.640,-16
0:17.642,-13
0:17.644,-11
0:17.646,-10
0:17.648,-10
0:17.650,-12
0:17.652,-15
0:17.654,-16
0:17.656,-18
0:17.658,-16
0:17.660,-12
0:17.662,-9
0:17.664,-11
0:17.666,-11
0:17.668,-13
0:17.670,-15
0:17.672,-16
0:17.674,-16
0:17.676,-17
0:17.678,-15
0:17.680,-15
0:17.682,-14
0:17.684,-12
0:17.686,-11
0:17.688,-10
0:17.690,-13
0:17.692,-15
0:17.694,-16
0:17.696,-18
0:17.698,-18
0:17.700,-15
0:17.702,-12
0:17.704,-13
0:17.706,-11
0:17.708,-12
0:17.710,-15
0:17.712,-16
0:17.714,-19
0:17.716,-21
0:17.718,-20
0:17.720,-19
0:17.722,-15
0:17.724,-15
0:17.726,-14
0:17.728,-15
0:17.730,-18
0:17.732,-19
0:17.734,-18
0:17.736,-21
0:17.738,-17
0:17.740,-13
0:17.742,-9
0:17.744,-9
0:17.746,-4
0:17.748,-8
0:17.750,-13
0:17.752,-13
0:17.754,-14
0:17.756,-15
0:17.758,-14
0:17.760,-13
0:17.762,-12
0:17.764,-8
0:17.766,-6
0:17.768,-9
0:17.770,-14
0:17.772,-12
0:17.774,-11
0:17.776,-10
0:17.778,-7
0:17.780,-4
0:17.782,-5
0:17.784,-2
0:17.786,-1
0:17.788,-5
0:17.790,-9
0:17.792,-6
0:17.794,-5
0:17.796,-6
0:17.798,-5
0:17.800,-4
0:17.802,-2
0:17.804,-3
0:17.806,-5
0:17.808,-8
0:17.810,-15
0:17.812,-18
0:17.814,-20
0:17.816,-22
0:17.818,-20
0:17.820,-18
0:17.822,-17
0:17.824,-16
0:17.826,-17
0:17.828,-16
0:17.830,-20
0:17.832,-21
0:17.834,-19
0:17.836,-22
0:17.838,-19
0:17.840,-16
0:17.842,-17
0:17.844,-15
0:17.846,-14
0:17.848,-17
0:17.850,-20
0:17.852,-23
0:17.854,-22
0:17.856,-25
0:17.858,-21
0:17.860,-19
0:17.862,-17
0:17.864,-17
0:17.866,-19
0:17.868,-22
0:17.870,-25
0:17.872,-24
0:17.874,-20
0:17.876,-24
0:17.878,-22
0:17.880,-21
0:17.882,-18
0:17.884,-17
0:17.886,-19
0:17.888,-24
0:17.890,-23
0:17.892,-24
0:17.894,-24
0:17.896,-23
0:17.898,-21
0:17.900,-20
0:17.902,-20
0:17.904,-19
0:17.906,-22
0:17.908,-28
0:17.910,-30
0:17.912,-30
0:17.914,-34
0:17.916,-35
0:17.918,-31
0:17.920,-23
0:17.922,-11
0:17.924,0
0:17.926,9
0:17.928,20
0:17.930,31
0:17.932,43
0:17.934,57
0:17.936,77
0:17.938,106
0:17.940,126
0:17.942,133
0:17.944,131
0:17.946,118
0:17.948,101
0:17.950,85
0:17.952,69
0:17.954,50
0:17.956,30
0:17.958,5
0:17.960,-18
0:17.962,-32
0:17.964,-34
0:17.966,-31
0:17.968,-30
0:17.970,-29
0:17.972,-29
0:17.974,-22
0:17.976,-19
0:17.978,-15
0:17.980,-12
0:17.982,-9
0:17.984,-10
0:17.986,-12
0:17.988,-15
0:17.990,-19
0:17.992,-18
0:17.994,-18
0:17.996,-18
0:17.998,-17
0:18.000,-16
0:18.002,-14
0:18.004,-10
0:18.006,-12
0:18.008,-13
0:18.010,-16
0:18.012,-18
0:18.014,-20
0:18.016,-18
0:18.018,-12
0:18.020,-11
0:18.022,-11
0:18.024,-8
0:18.026,-11
0:18.028,-14
0:18.030,-16
0:18.032,-13
0:18.034,-13
0:18.036,-10
0:18.038,-11
0:18.040,-9
0:18.042,-6
0:18.044,-3
0:18.046,-6
0:18.048,-10
0:18.050,-9
0:18.052,-9
0:18.054,-12
0:18.056,-7
0:18.058,-5
0:18.060,-5
0:18.062,-7
0:18.064,-6
0:18.066,-7
0:18.068,-7
0:18.070,-9
0:18.072,-11
0:18.074,-11
0:18.076,-8
0:18.078,-6
0:18.080,-3
0:18.082,-1
0:18.084,2
0:18.086,-1
0:18.088,-2
0:18.090,-1
0:18.092,-2
0:18.094,-3
0:18.096,-3
0:18.098,2
0:18.100,2
0:18.102,6
0:18.104,10
0:18.106,8
0:18.108,4
0:18.110,4
0:18.112,4
0:18.114,3
0:18.116,8
0:18.118,11
0:18.120,14
0:18.122,17
0:18.124,17
0:18.126,16
0:18.128,17
0:18.130,14
0:18.132,15
0:18.134,14
0:18.136,18
0:18.138,21
0:18.140,25
0:18.142,28
0:18.144,27
0:18.146,26
0:18.148,27
0:18.150,27
0:18.152,28
0:18.154,29
0:18.156,31
0:18.158,31
0:18.160,34
0:18.162,36
0:18.164,35
0:18.166,33
0:18.168,31
0:18.170,32
0:18.172,31
0:18.174,30
0:18.176,31
0:18.178,34
0:18.180,34
0:18.182,36
0:18.184,36
0:18.186,31
0:18.188,26
0:18.190,23
0:18.192,22
0:18.194,19
0:18.196,19
0:18.198,20
0:18.200,18
0:18.202,16
0:18.204,15
0:18.206,12
0:18.208,8
0:18.210,10
0:18.212,1
0:18.214,-3
0:18.216,1
0:18.218,1
0:18.220,0
0:18.222,-1
0:18.224,-2
0:18.226,-6
0:18.228,-6
0:18.230,-8
0:18.232,-10
0:18.234,-11
0:18.236,-9
0:18.238,-8
0:18.240,-7
0:18.242,-10
0:18.244,-10
0:18.246,-15
0:18.248,-16
0:18.250,-18
0:18.252,-20
0:18.254,-17
0:18.256,-15
0:18.258,-12
0:18.260,-11
0:18.262,-10
0:18.264,-15
0:18.266,-17
0:18.268,-19
0:18.270,-19
0:18.272,-19
0:18.274,-17
0:18.276,-16
0:18.278,-14
0:18.280,-13
0:18.282,-11
0:18.284,-13
0:18.286,-15
0:18.288,-16
0:18.290,-21
0:18.292,-20
0:18.294,-17
0:18.296,-17
0:18.298,-13
0:18.300,-11
0:18.302,-10
0:18.304,-11
0:18.306,-14
0:18.308,-12
0:18.310,-15
0:18.312,-20
0:18.314,-19
0:18.316,-17
0:18.318,-14
0:18.320,-10
0:18.322,-9
0:18.324,-12
0:18.326,-13
0:18.328,-14
0:18.330,-19
0:18.332,-18
0:18.334,-18
0:18.336,-13
0:18.338,-14
0:18.340,-11
0:18.342,-10
0:18.344,-12
0:18.346,-14
0:18.348,-15
0:18.350,-17
0:18.352,-20
0:18.354,-15
0:18.356,-15
0:18.358,-12
0:18.360,-12
0:18.362,-11
0:18.364,-11
0:18.366,-13
0:18.368,-16
0:18.370,-15
0:18.372,-14
0:18.374,-13
0:18.376,-13
0:18.378,-9
0:18.380,-5
0:18.382,-7
0:18.384,-9
0:18.386,-13
0:18.388,-15
0:18.390,-15
0:18.392,-16
0:18.394,-16
0:18.396,-13
0:18.398,-12
0:18.400,-10
0:18.402,-12
0:18.404,-14
0:18.406,-14
0:18.408,-16
0:18.410,-18
0:18.412,-22
0:18.414,-18
0:18.416,-15
0:18.418,-14
0:18.420,-9
0:18.422,-11
0:18.424,-16
0:18.426,-14
0:18.428,-15
0:18.430,-19
0:18.432,-20
0:18.434,-17
0:18.436,-15
0:18.438,-13
0:18.440,-13
0:18.442,-13
0:18.444,-15
0:18.446,-20
0:18.448,-18
0:18.450,-18
0:18.452,-19
0:18.454,-16
0:18.456,-11
0:18.458,-12
0:18.460,-9
0:18.462,-11
0:18.464,-16
0:18.466,-15
0:18.468,-18
0:18.470,-19
0:18.472,-20
0:18.474,-17
0:18.476,-16
0:18.478,-15
0:18.480,-11
0:18.482,-10
0:18.484,-12
0:18.486,-14
0:18.488,-17
0:18.490,-19
0:18.492,-21
0:18.494,-16
0:18.496,-14
0:18.498,-17
0:18.500,-15
0:18.502,-17
0:18.504,-18
0:18.506,-20
0:18.508,-15
0:18.510,-21
0:18.512,-20
0:18.514,-18
0:18.516,-17
0:18.518,-13
0:18.520,-9
0:18.522,-11
0:18.524,-13
0:18.526,-19
0:18.528,-22
0:18.530,-22
0:18.532,-18
0:18.534,-17
0:18.536,-13
0:18.538,-13
0:18.540,-10
0:18.542,-14
0:18.544,-15
0:18.546,-19
0:18.548,-19
0:18.550,-18
0:18.552,-18
0:18.554,-14
0:18.556,-15
0:18.558,-15
0:18.560,-12
0:18.562,-13
0:18.564,-17
0:18.566,-19
0:18.568,-21
0:18.570,-20
0:18.572,-19
0:18.574,-15
0:18.576,-16
0:18.578,-13
0:18.580,-13
0:18.582,-12
0:18.584,-12
0:18.586,-17
0:18.588,-17
0:18.590,-15
0:18.592,-12
0:18.594,-12
0:18.596,-9
0:18.598,-9
0:18.600,-9
0:18.602,-6
0:18.604,-9
0:18.606,-9
0:18.608,-11
0:18.610,-11
0:18.612,-12
0:18.614,-10
0:18.616,-8
0:18.618,-6
0:18.620,-5
0:18.622,-3
0:18.624,-2
0:18.626,-2
0:18.628,-1
0:18.630,-5
0:18.632,-2
0:18.634,-3
0:18.636,-6
0:18.638,-1
0:18.640,0
0:18.642,-5
0:18.644,-7
0:18.646,-5
0:18.648,-7
0:18.650,-9
0:18.652,-9
0:18.654,-9
0:18.656,-7
0:18.658,-8
0:18.660,-6
0:18.662,-8
0:18.664,-12
0:18.666,-17
0:18.668,-21
0:18.670,-23
0:18.672,-20
0:18.674,-14
0:18.676,-15
0:18.678,-16
0:18.680,-16
0:18.682,-15
0:18.684,-19
0:18.686,-22
0:18.688,-25
0:18.690,-24
0:18.692,-20
0:18.694,-17
0:18.696,-15
0:18.698,-12
0:18.700,-16
0:18.702,-19
0:18.704,-21
0:18.706,-20
0:18.708,-21
0:18.710,-21
0:18.712,-21
0:18.714,-18
0:18.716,-16
0:18.718,-13
0:18.720,-16
0:18.722,-18
0:18.724,-19
0:18.726,-25
0:18.728,-25
0:18.730,-23
0:18.732,-23
0:18.734,-21
0:18.736,-21
0:18.738,-18
0:18.740,-17
0:18.742,-18
0:18.744,-20
0:18.746,-20
0:18.748,-22
0:18.750,-25
0:18.752,-22
0:18.754,-22
0:18.756,-22
0:18.758,-21
0:18.760,-21
0:18.762,-26
0:18.764,-29
0:18.766,-29
0:18.768,-28
0:18.770,-23
0:18.772,-14
0:18.774,-1
0:18.776,11
0:18.778,25
0:18.780,41
0:18.782,48
0:18.784,62
0:18.786,83
0:18.788,101
0:18.790,112
0:18.792,117
0:18.794,113
0:18.796,106
0:18.798,93
0:18.800,76
0:18.802,56
0:18.804,34
0:18.806,9
0:18.808,-16
0:18.810,-33
0:18.812,-40
0:18.814,-40
0:18.816,-34
0:18.818,-32
0:18.820,-31
0:18.822,-26
0:18.824,-21
0:18.826,-18
0:18.828,-18
0:18.830,-16
0:18.832,-11
0:18.834,-9
0:18.836,-11
0:18.838,-10
0:18.840,-14
0:18.842,-12
0:18.844,-14
0:18.846,-15
0:18.848,-18
0:18.850,-17
0:18.852,-11
0:18.854,-9
0:18.856,-8
0:18.858,-4
0:18.860,-6
0:18.862,-10
0:18.864,-10
0:18.866,-11
0:18.868,-13
0:18.870,-10
0:18.872,-9
0:18.874,-9
0:18.876,-6
0:18.878,-4
0:18.880,-4
0:18.882,-6
0:18.884,-11
0:18.886,-11
0:18.888,-9
0:18.890,-8
0:18.892,-7
0:18.894,-3
0:18.896,-3
0:18.898,0
0:18.900,1
0:18.902,-4
0:18.904,-5
0:18.906,-5
0:18.908,-10
0:18.910,-8
0:18.912,-6
0:18.914,-2
0:18.916,0
0:18.918,2
0:18.920,0
0:18.922,0
0:18.924,-1
0:18.926,-4
0:18.928,-6
0:18.930,0
0:18.932,1
0:18.934,4
0:18.936,5
0:18.938,7
0:18.940,8
0:18.942,6
0:18.944,4
0:18.946,2
0:18.948,0
0:18.950,3
0:18.952,6
0:18.954,10
0:18.956,11
0:18.958,12
0:18.960,12
0:18.962,9
0:18.964,10
0:18.966,10
0:18.968,12
0:18.970,14
0:18.972,14
0:18.974,17
0:18.976,20
0:18.978,23
0:18.980,23
0:18.982,17
0:18.984,20
0:18.986,22
0:18.988,23
0:18.990,25
0:18.992,27
0:18.994,32
0:18.996,34
0:18.998,35
0:19.000,36
0:19.002,35
0:19.004,36
0:19.006,31
0:19.008,31
0:19.010,34
0:19.012,36
0:19.014,36
0:19.016,38
0:19.018,41
0:19.020,40
0:19.022,36
0:19.024,33
0:19.026,33
0:19.028,30
0:19.030,33
0:19.032,36
0:19.034,38
0:19.036,36
0:19.038,37
0:19.040,30
0:19.042,26
0:19.044,24
0:19.046,20
0:19.048,16
0:19.050,18
0:19.052,19
0:19.054,16
0:19.056,17
0:19.058,15
0:19.060,14
0:19.062,10
0:19.064,5
0:19.066,-1
0:19.068,1
0:19.070,0
0:19.072,1
0:19.074,-1
0:19.076,-2
0:19.078,-2
0:19.080,-8
0:19.082,-8
0:19.084,-12
0:19.086,-14
0:19.088,-10
0:19.090,-10
0:19.092,-6
0:19.094,-6
0:19.096,-4
0:19.098,-8
0:19.100,-11
0:19.102,-10
0:19.104,-14
0:19.106,-17
0:19.108,-15
0:19.110,-13
0:19.112,-12
0:19.114,-13
0:19.116,-12
0:19.118,-14
0:19.120,-13
0:19.122,-16
0:19.124,-16
0:19.126,-17
0:19.128,-14
0:19.130,-13
0:19.132,-11
0:19.134,-10
0:19.136,-10
0:19.138,-13
0:19.140,-15
0:19.142,-19
0:19.144,-20
0:19.146,-18
0:19.148,-15
0:19.150,-14
0:19.152,-14
0:19.154,-12
0:19.156,-10
0:19.158,-10
0:19.160,-12
0:19.162,-13
0:19.164,-15
0:19.166,-15
0:19.168,-14
0:19.170,-12
0:19.172,-10
0:19.174,-10
0:19.176,-7
0:19.178,-9
0:19.180,-14
0:19.182,-16
0:19.184,-15
0:19.186,-14
0:19.188,-12
0:19.190,-10
0:19.192,-7
0:19.194,-5
0:19.196,-6
0:19.198,-7
0:19.200,-10
0:19.202,-11
0:19.204,-12
0:19.206,-12
0:19.208,-12
0:19.210,-11
0:19.212,-9
0:19.214,-10
0:19.216,-7
0:19.218,-9
0:19.220,-11
0:19.222,-13
0:19.224,-16
0:19.226,-15
0:19.228,-13
0:19.230,-10
0:19.232,-5
0:19.234,-6
0:19.236,-4
0:19.238,-9
0:19.240,-11
0:19.242,-10
0:19.244,-13
0:19.246,-15
0:19.248,-11
0:19.250,-9
0:19.252,-9
0:19.254,-9
0:19.256,-9
0:19.258,-12
0:19.260,-12
